2489 10608 18367 26532 2511 10601 18336 26506 2515 10578 18306 26484 2496 10533 18279 26466 5000 2446 10473 18267 26464 2368 10388 18262 26465 2279 10308 18269 26479 2192 10239 18286 26500 2111 10177 18309 26526 2042 10130 18331 26546 1984 10097 18352 26565 1936 10072 18371 26582 1897 10054 18389 26597 1876 10049 18406 26612 1863 10051 18420 26624 1858 10061 18437 26637 1858 10076 18453 26645 1866 10097 18468 26658 1876 10120 18481 26665 1890 10145 18494 26677 1902 10166 18503 26682 1917 10186 18509 26688 1928 10199 18511 26689 1935 10206 18509 26690 1944 10210 18505 26688 1950 10210 18498 26686 1957 10212 18495 26687 1960 10212 18492 26684 1965 10215 18489 26686 1966 10216 18488 26684 1968 10218 18490 26687 1965 10216 18490 26686 1965 10216 18492 26688 1962 10215 18493 26688 1960 10213 18494 26691 1962 10215 18493 26690 1966 10217 18491 26692 1974 10224 18493 26693 1980 10230 18492 26694 1992 10242 18493 26696 2001 10252 18493 26695 2011 10262 18496 26699 2015 10270 18497 26699 6000 2017 10273 18499 26699 2011 10268 18500 26699 2005 10266 18505 26705 1996 10267 18511 26707 1984 10259 18514 26709 1968 10245 18517 26711 1943 10225 18518 26711 1922 10206 18521 26714 1898 10183 18520 26715 1875 10162 18524 26720 1847 10137 18525 26721 1822 10114 18526 26725 1798 10090 18527 26727 1773 10067 18528 26733 1746 10043 18529 26735 1725 10023 18530 26739 1706 10005 18531 26741 1684 9985 18531 26744 1668 9971 18532 26749 1656 9960 18531 26749 1649 9953 18533 26754 1640 9945 18533 26755 1638 9943 18533 26759 1641 9945 18532 26758 1647 9950 18533 26763 1652 9955 18532 26762 1665 9967 18531 26762 1680 9979 18530 26759 1693 9992 18528 26756 1713 10009 18527 26754 1735 10029 18524 26750 1760 10051 18524 26749 1782 10072 18523 26744 1809 10096 18520 26743 1835 10118 18517 26738 1861 10141 18515 26738 1886 10161 18511 26733 1913 10183 18508 26730 1935 10201 18505 26722 1953 10213 18500 26717 1975 10230 18498 26711 1995 10249 18496 26707 2016 10267 18496 26704 2031 10280 18494 26697 2045 10289 18490 26694 2055 10294 18486 26686 2065 10299 18484 26684 2073 10305 18481 26677 2082 10309 18478 26672 2088 10312 18475 26667 2092 10315 18471 26663 2103 10320 18469 26658 2106 10323 18465 26654 2113 10328 18465 26651 2116 10330 18462 26647 2126 10335 18461 26646 2129 10338 18458 26641 2136 10343 18457 26640 2139 10345 18455 26636 2148 10351 18454 26635 2153 10355 18453 26630 2157 10358 18452 26630 2162 10362 18451 26627 2169 10368 18450 26625 2175 10375 18451 26625 2176 10377 18450 26623 2183 10383 18451 26624 2186 10387 18450 26623 2191 10392 18452 26625 2192 10393 18452 26624 2197 10396 18453 26626 2198 10398 18453 26624 2199 10399 18454 26625 2197 10398 18453 26624 2199 10399 18452 26624 2199 10399 18452 26622 2194 10396 18451 26619 2195 10394 18450 26619 2190 10389 18447 26615 2191 10393 18449 26618 2191 10395 18451 26616 2192 10395 18452 26620 2189 10390 18451 26618 2185 10385 18449 26620 2179 10377 18447 26617 2176 10373 18445 26617 2171 10365 18442 26615 2163 10356 18439 26614 2162 10351 18436 26614 2157 10344 18432 26612 2155 10340 18431 26614 2151 10334 18427 26611 2150 10330 18425 26613 2147 10323 18421 26609 2145 10319 18420 26611 2141 10312 18416 26607 2141 10308 18413 26606 2138 10303 18410 26603 2134 10297 18407 26601 2134 10295 18404 26598 2132 10290 18400 26596 2132 10288 18399 26595 2129 10284 18397 26591 2130 10283 18395 26590 2128 10279 18392 26586 2128 10277 18391 26588 2126 10274 18389 26584 2128 10272 18387 26584 2127 10270 18385 26581 2125 10268 18384 26582 2125 10268 18383 26580 2125 10266 18380 26579 2125 10266 18381 26578 2122 10265 18380 26577 2125 10266 18380 26577 2122 10262 18377 26574 2119 10256 18377 26574 2115 10254 18376 26571 2118 10257 18378 26573 2117 10257 18377 26572 2116 10255 18376 26573 2113 10253 18374 26570 2113 10249 18372 26567 2115 10249 18372 26566 2116 10251 18372 26565 2126 10262 18373 26567 2136 10272 18374 26566 2151 10290 18380 26569 2165 10307 18382 26568 2184 10328 18384 26569 2202 10347 18385 26566 2220 10364 18386 26567 2234 10378 18385 26562 2251 10394 18384 26562 2265 10406 18385 26560 2270 10413 18386 26559 2275 10420 18390 26562 2275 10423 18394 26563 2272 10425 18401 26569 2260 10418 18407 26571 2248 10410 18412 26577 2231 10398 18415 26578 2213 10383 18419 26584 2191 10363 18419 26585 2173 10345 18419 26587 2152 10325 18420 26587 2130 10304 18419 26589 2114 10287 18418 26590 2095 10269 18416 26591 2081 10253 18418 26594 2067 10240 18419 26594 2058 10231 18420 26599 2046 10221 18422 26599 2036 10214 18423 26606 2027 10205 18425 26606 2019 10200 18427 26608 2016 10203 18431 26612 2012 10206 18436 26618 2011 10209 18442 26622 2007 10208 18444 26626 2004 10209 18449 26631 6002 2001 10209 18452 26632 2002 10211 18455 26636 2001 10212 18456 26638 2004 10217 18459 26642 2006 10220 18459 26643 2011 10226 18460 26645 2015 10230 18461 26646 2018 10234 18461 26648 2024 10240 18459 26648 2028 10244 18457 26648 2033 10248 18457 26649 2036 10251 18454 26647 2044 10255 18451 26647 2047 10255 18447 26643 2050 10255 18444 26642 2056 10255 18439 26638 2060 10254 18434 26636 2061 10250 18430 26631 2061 10246 18424 26629 2064 10242 18419 26625 2062 10236 18413 26622 2061 10230 18409 26618 2057 10222 18405 26614 2058 10216 18401 26611 2052 10208 18395 26606 2047 10202 18393 26605 2044 10194 18388 26601 2041 10188 18384 26600 2036 10181 18380 26596 2030 10174 18379 26596 2028 10168 18376 26593 2024 10161 18374 26591 2015 10149 18370 26588 2012 10147 18369 26587 2015 10150 18371 26590 2013 10147 18369 26589 2010 10145 18370 26591 2007 10139 18370 26587 2004 10136 18369 26589 1999 10132 18368 26588 1995 10129 18369 26591 1993 10126 18368 26589 1991 10126 18368 26589 1989 10124 18369 26590 1985 10121 18370 26591 1987 10121 18370 26591 1985 10121 18369 26591 1984 10121 18371 26593 1982 10119 18371 26590 1982 10119 18371 26591 1980 10118 18370 26590 1979 10118 18372 26592 1978 10116 18371 26590 1979 10118 18371 26589 1978 10118 18372 26589 1977 10118 18373 26589 1979 10119 18372 26587 1980 10121 18371 26587 1982 10124 18373 26587 1983 10125 18373 26586 1988 10130 18373 26587 1990 10133 18373 26587 1993 10137 18376 26590 1995 10140 18376 26589 2001 10146 18377 26590 2003 10150 18379 26590 2005 10154 18381 26592 2009 10158 18383 26593 2012 10162 18384 26595 2015 10168 18388 26597 2014 10166 18389 26596 2019 10172 18391 26598 2022 10182 18394 26600 2028 10193 18401 26606 2034 10199 18404 26607 2037 10205 18406 26609 2038 10208 18409 26610 2039 10212 18411 26613 2044 10218 18414 26614 2045 10223 18416 26616 2047 10229 18419 26619 2050 10234 18421 26620 2058 10241 18425 26624 2058 10247 18427 26625 2061 10253 18432 26629 2064 10258 18435 26629 2067 10263 18437 26633 2067 10265 18440 26634 2066 10268 18442 26637 2069 10272 18444 26639 2069 10274 18446 26641 2068 10276 18448 26642 2067 10276 18449 26643 2071 10281 18451 26644 2069 10280 18452 26644 2069 10283 18455 26646 2070 10284 18455 26645 2074 10287 18456 26648 2073 10288 18458 26648 2073 10289 18459 26651 2077 10291 18459 26651 2079 10294 18459 26651 2079 10296 18461 26651 2079 10296 18461 26651 2084 10298 18461 26651 2082 10297 18460 26651 2082 10298 18462 26653 2082 10297 18462 26649 2083 10295 18461 26652 2077 10289 18458 26649 2077 10291 18459 26650 2084 10299 18460 26650 2089 10303 18461 26651 2090 10304 18462 26652 2089 10302 18460 26653 2093 10303 18458 26650 2090 10300 18456 26648 2089 10298 18456 26648 2086 10294 18453 26645 2086 10292 18451 26645 2081 10286 18449 26643 2076 10282 18448 26644 2074 10277 18447 26642 2070 10272 18445 26642 2063 10265 18444 26640 2057 10258 18442 26641 2055 10253 18441 26640 2050 10247 18440 26640 2046 10244 18440 26640 2041 10239 18439 26638 2042 10238 18439 26638 2039 10235 18438 26637 2038 10233 18438 26638 2036 10231 18437 26636 2037 10229 18436 26637 2036 10227 18435 26636 2034 10225 18435 26637 2036 10225 18433 26636 2036 10224 18432 26636 2037 10224 18432 26635 2036 10222 18429 26632 2040 10224 18428 26632 2040 10224 18426 26630 2041 10227 18427 26631 2044 10229 18426 26630 2049 10232 18426 26631 2049 10233 18425 26630 2048 10228 18423 26628 2050 10230 18422 26624 2053 10237 18423 26624 2055 10240 18423 26625 2054 10240 18422 26624 2056 10237 18420 26623 2049 10230 18417 26619 2043 10224 18417 26618 2037 10216 18415 26614 2031 10208 18412 26614 2022 10196 18409 26611 2013 10183 18407 26611 2002 10169 18403 26608 1993 10157 18399 26607 1982 10142 18397 26605 1968 10125 18392 26603 1958 10111 18387 26601 1946 10096 18382 26599 1935 10083 18382 26599 1921 10071 18381 26596 1917 10068 18382 26599 1918 10074 18386 26599 1933 10093 18393 26605 1963 10127 18399 26607 2019 10185 18407 26610 2089 10260 18413 26607 2170 10343 18415 26602 2251 10423 18414 26591 2332 10495 18406 26578 2407 10555 18395 26560 2462 10591 18375 26537 2506 10609 18349 26513 2534 10609 18317 26486 2544 10589 18290 26466 2519 10546 18267 26450 5000 2472 10485 18254 26446 2397 10412 18252 26450 2310 10330 18260 26467 2217 10255 18275 26482 2133 10190 18294 26500 2065 10146 18318 26523 2008 10113 18341 26543 1966 10093 18361 26563 1931 10077 18377 26578 1907 10071 18395 26594 1889 10069 18411 26605 1882 10077 18426 26619 1881 10090 18441 26629 1885 10107 18457 26643 1892 10128 18470 26651 1906 10150 18481 26660 1919 10171 18491 26666 1929 10188 18496 26670 1943 10203 18499 26675 1951 10211 18497 26675 1959 10216 18496 26677 1963 10216 18493 26675 1967 10218 18489 26677 1970 10218 18487 26676 1973 10220 18488 26681 1973 10221 18489 26681 1974 10223 18491 26683 1971 10222 18494 26683 1964 10219 18496 26685 1961 10218 18500 26688 1958 10215 18499 26689 1960 10217 18501 26693 1962 10219 18501 26692 1969 10225 18502 26695 1977 10232 18501 26694 1988 10242 18503 26699 1996 10253 18503 26700 2006 10263 18504 26703 2010 10269 18506 26703 6000 2009 10271 18507 26705 2006 10271 18510 26706 1996 10264 18511 26706 1979 10249 18514 26708 1961 10238 18520 26709 1945 10227 18525 26716 1924 10210 18527 26718 1902 10189 18531 26725 1874 10165 18533 26727 1850 10143 18536 26731 1824 10119 18537 26733 1796 10093 18539 26739 1768 10069 18540 26740 1744 10046 18539 26743 1722 10025 18540 26746 1696 10002 18539 26748 1679 9985 18539 26752 1664 9970 18536 26752 1653 9959 18537 26757 1640 9947 18535 26758 1636 9941 18534 26761 1635 9939 18533 26760 1636 9939 18533 26764 1637 9940 18532 26763 1645 9948 18531 26764 1656 9958 18531 26763 1664 9967 18531 26761 1680 9984 18531 26761 1699 10001 18529 26757 1721 10022 18531 26758 1741 10041 18531 26754 1765 10063 18529 26751 1791 10085 18527 26745 1817 10107 18525 26744 1841 10127 18521 26737 1868 10148 18516 26733 1892 10166 18512 26727 1912 10183 18507 26721 1935 10201 18505 26717 1953 10215 18500 26711 1973 10230 18498 26708 1986 10240 18494 26698 2001 10250 18490 26695 2017 10263 18488 26691 2032 10277 18488 26691 2044 10288 18486 26686 2054 10294 18484 26682 2060 10298 18482 26678 2064 10300 18479 26675 2072 10305 18477 26672 2075 10305 18473 26667 2081 10308 18471 26665 2085 10309 18468 26658 2094 10314 18465 26656 2098 10316 18462 26651 2102 10320 18460 26650 2111 10324 18458 26646 2119 10330 18456 26645 2125 10335 18455 26643 2129 10339 18453 26642 2140 10346 18453 26639 2146 10351 18451 26637 2155 10359 18452 26636 2159 10364 18452 26633 2167 10371 18453 26634 2171 10377 18453 26631 2177 10383 18455 26634 2179 10386 18454 26634 2185 10392 18455 26636 2187 10395 18456 26635 2188 10397 18456 26637 2189 10399 18457 26636 2192 10402 18456 26636 2196 10407 18458 26636 2195 10408 18459 26635 2199 10411 18461 26637 2200 10413 18460 26636 2203 10416 18463 26640 2202 10414 18463 26639 2204 10414 18463 26639 2199 10408 18461 26637 2197 10407 18460 26638 2198 10409 18461 26636 2199 10409 18460 26636 2197 10405 18459 26637 2191 10396 18456 26634 2189 10391 18454 26635 2183 10384 18451 26632 2179 10378 18450 26634 2173 10369 18447 26630 2169 10361 18443 26630 2164 10353 18439 26626 2160 10345 18437 26626 2155 10338 18434 26623 2153 10334 18432 26622 2150 10330 18431 26620 2144 10323 18428 26617 2144 10320 18427 26616 2141 10315 18424 26613 2140 10312 18424 26613 2137 10307 18421 26609 2137 10304 18417 26608 2135 10299 18413 26603 2134 10296 18411 26604 2132 10293 18407 26600 2134 10291 18404 26599 2134 10289 18401 26596 2132 10286 18398 26594 2135 10287 18396 26592 2135 10285 18392 26589 2138 10285 18392 26588 2137 10283 18390 26584 2141 10283 18387 26583 2141 10281 18384 26579 2143 10280 18383 26580 2142 10278 18379 26577 2144 10277 18377 26577 2143 10274 18375 26574 2137 10266 18370 26573 2136 10264 18369 26569 2139 10266 18369 26569 2143 10271 18370 26571 2143 10273 18369 26570 2148 10277 18369 26573 2151 10280 18369 26571 2160 10290 18374 26576 2167 10302 18376 26575 2184 10320 18378 26575 2200 10336 18380 26573 2216 10352 18381 26573 2231 10368 18381 26568 2250 10384 18379 26564 2267 10398 18378 26561 2276 10407 18376 26557 2286 10416 18377 26556 2292 10423 18376 26554 2294 10428 18382 26559 2287 10425 18386 26560 2279 10422 18391 26565 2266 10414 18396 26567 2250 10403 18401 26573 2230 10387 18404 26574 2212 10371 18405 26578 2193 10354 18407 26581 2171 10334 18407 26583 2154 10318 18407 26586 2136 10300 18406 26586 2121 10287 18408 26590 2106 10273 18408 26591 2095 10262 18409 26595 2082 10251 18410 26596 2070 10242 18412 26601 2063 10236 18414 26602 2056 10231 18416 26605 2048 10228 18420 26607 2039 10223 18423 26609 2035 10220 18425 26611 2025 10213 18426 26612 2024 10218 18431 26617 2023 10223 18437 26618 2026 10228 18441 26624 2025 10229 18443 26627 2026 10231 18446 26632 2028 10234 18446 26632 2031 10238 18448 26634 2034 10241 18449 26637 2035 10244 18449 26638 2042 10249 18449 26639 2044 10251 18448 26638 2048 10256 18448 26638 2052 10259 18447 26634 2058 10263 18445 26635 2060 10264 18443 26631 2062 10264 18441 26631 2066 10264 18437 26628 2068 10262 18433 26626 2067 10258 18430 26623 2064 10253 18426 26620 2067 10249 18421 26616 2062 10242 18414 26613 2059 10235 18411 26611 2056 10226 18405 26606 2056 10220 18400 26605 2051 10212 18394 26600 2047 10204 18391 26599 2044 10196 18387 26594 2042 10190 18382 26592 2037 10183 18379 26588 2031 10175 18376 26587 2030 10169 18372 26584 2026 10163 18367 26583 2022 10158 18366 26581 2018 10150 18363 26579 2019 10147 18361 26578 2013 10141 18357 26575 2008 10132 18355 26575 2008 10132 18355 26572 2011 10138 18356 26574 2013 10139 18355 26574 2013 10138 18355 26576 2015 10137 18355 26575 2013 10137 18355 26575 2011 10136 18356 26576 2010 10134 18356 26575 2014 10135 18354 26575 2012 10134 18352 26573 2011 10134 18354 26575 2013 10132 18354 26572 2014 10133 18353 26572 2011 10132 18352 26570 2010 10132 18353 26572 2011 10131 18352 26570 2011 10132 18352 26571 2008 10131 18354 26571 2005 10129 18355 26570 2007 10130 18357 26570 2004 10130 18357 26570 2002 10132 18360 26572 2001 10132 18362 26570 2003 10134 18363 26571 2002 10135 18363 26568 2002 10137 18365 26570 2005 10138 18364 26569 2009 10142 18364 26571 2010 10145 18366 26571 2012 10148 18368 26573 2017 10154 18370 26575 2017 10157 18372 26576 2018 10163 18376 26579 2020 10167 18379 26579 2026 10173 18382 26582 2026 10178 18385 26581 2028 10184 18389 26588 2031 10184 18391 26586 2032 10188 18393 26586 2036 10198 18397 26588 2040 10206 18401 26594 2048 10214 18403 26595 2049 10218 18405 26597 2051 10223 18409 26601 2053 10228 18413 26602 2058 10235 18417 26607 2059 10239 18419 26608 2061 10245 18424 26613 2064 10251 18427 26614 2066 10256 18430 26616 2066 10260 18433 26617 2065 10262 18436 26621 2069 10267 18439 26623 2067 10269 18441 26624 2066 10273 18445 26628 2065 10275 18447 26628 2070 10281 18450 26631 2068 10282 18451 26631 2069 10287 18454 26635 2072 10290 18455 26635 2075 10294 18457 26638 2075 10297 18459 26639 2074 10298 18461 26642 2079 10301 18462 26643 2079 10304 18462 26644 2080 10305 18464 26646 2079 10305 18464 26645 2084 10308 18464 26647 2082 10306 18463 26645 2083 10307 18463 26647 2086 10305 18461 26644 2090 10306 18459 26646 2091 10306 18458 26643 2092 10308 18458 26644 2097 10310 18457 26643 2099 10312 18457 26641 2097 10308 18455 26639 2095 10306 18453 26638 2102 10312 18453 26639 2100 10309 18451 26638 2099 10307 18451 26640 2094 10302 18449 26636 2091 10298 18448 26638 2085 10291 18446 26636 2078 10285 18445 26637 2075 10278 18443 26635 2070 10272 18441 26634 2065 10266 18440 26633 2060 10261 18438 26632 2061 10260 18438 26631 2057 10256 18437 26631 2056 10254 18438 26632 2055 10253 18437 26629 2057 10252 18436 26630 2054 10248 18433 26626 2052 10246 18433 26627 2053 10244 18431 26624 2053 10243 18429 26624 2052 10242 18429 26623 2051 10242 18428 26622 2057 10244 18428 26622 2056 10245 18426 26622 2057 10246 18428 26622 2058 10246 18428 26620 2063 10249 18429 26621 2062 10249 18427 26619 2063 10251 18429 26621 2067 10252 18427 26619 2070 10254 18426 26620 2070 10253 18426 26617 2069 10253 18426 26618 2072 10254 18425 26616 2070 10252 18423 26615 2067 10248 18423 26614 2060 10238 18420 26610 2056 10230 18416 26609 2050 10226 18414 26607 2046 10222 18414 26609 2042 10212 18410 26605 2035 10200 18404 26603 2024 10185 18397 26599 2013 10170 18392 26597 2004 10155 18385 26591 1995 10141 18378 26586 1985 10126 18372 26582 1972 10108 18367 26578 1963 10095 18363 26575 1952 10084 18360 26572 1946 10080 18364 26574 1945 10084 18367 26573 1958 10101 18372 26576 1984 10130 18379 26577 2027 10182 18387 26581 2091 10247 18393 26578 2170 10330 18397 26577 2248 10407 18399 26568 2319 10473 18395 26559 2382 10527 18387 26544 2437 10565 18369 26525 2483 10587 18348 26504 2505 10582 18321 26479 2508 10559 18292 26459 2489 10514 18265 26441 5000 2440 10455 18252 26438 2367 10377 18247 26441 2283 10300 18253 26454 2196 10229 18267 26471 2112 10164 18287 26493 2044 10118 18309 26514 1990 10085 18328 26535 1945 10066 18350 26554 1909 10052 18368 26567 1887 10043 18384 26583 1870 10042 18398 26593 1867 10056 18415 26607 1869 10073 18431 26616 1879 10096 18446 26628 1891 10119 18461 26638 1903 10144 18474 26649 1919 10169 18486 26656 1934 10192 18494 26662 1949 10211 18501 26668 1958 10223 18502 26670 1970 10233 18501 26673 1976 10235 18496 26672 1982 10237 18494 26675 1984 10235 18489 26673 1988 10235 18485 26672 1988 10231 18481 26668 1984 10224 18478 26667 1979 10217 18475 26662 1974 10208 18472 26659 1968 10199 18471 26657 1958 10188 18468 26653 1955 10183 18466 26652 1952 10178 18463 26651 1953 10178 18464 26655 1956 10181 18464 26656 1964 10189 18465 26661 1972 10198 18467 26663 1980 10208 18470 26668 1987 10217 18472 26668 6000 1994 10225 18473 26670 1998 10231 18477 26670 1997 10234 18481 26671 1997 10238 18485 26673 1993 10237 18488 26674 1988 10236 18494 26679 1977 10230 18499 26681 1966 10224 18503 26687 1951 10211 18505 26689 1930 10190 18507 26694 1909 10175 18511 26696 1891 10163 18515 26701 1870 10145 18517 26704 1843 10122 18519 26709 1818 10100 18522 26712 1793 10079 18523 26716 1771 10060 18528 26722 1745 10041 18532 26725 1728 10028 18535 26732 1714 10017 18536 26734 1705 10010 18540 26741 1696 10004 18541 26743 1697 10005 18542 26746 1700 10009 18541 26747 1704 10014 18541 26750 1713 10023 18541 26748 1727 10036 18539 26747 1744 10051 18539 26746 1758 10065 18538 26743 1779 10083 18537 26743 1799 10101 18535 26738 1822 10122 18535 26739 1842 10140 18532 26734 1866 10160 18530 26731 1888 10179 18528 26726 1909 10197 18527 26725 1930 10214 18525 26721 1949 10230 18523 26718 1969 10246 18521 26715 1984 10259 18518 26710 2002 10273 18516 26708 2015 10282 18512 26705 2028 10292 18513 26707 2034 10299 18513 26706 2038 10303 18515 26709 2037 10305 18519 26710 2035 10308 18526 26718 2033 10313 18530 26716 2033 10314 18533 26715 2037 10321 18537 26718 2038 10326 18538 26717 2043 10330 18539 26718 2042 10328 18536 26714 2043 10328 18537 26715 2043 10326 18535 26708 2048 10327 18530 26706 2053 10327 18524 26700 2060 10328 18519 26698 2067 10330 18514 26692 2077 10335 18509 26687 2086 10339 18505 26684 2094 10342 18499 26679 2110 10349 18495 26676 2118 10354 18488 26672 2130 10362 18486 26670 2140 10368 18480 26664 2154 10376 18476 26662 2164 10382 18472 26656 2174 10388 18469 26654 2181 10391 18464 26649 2192 10398 18461 26646 2199 10403 18458 26641 2203 10405 18454 26639 2209 10408 18452 26635 2214 10410 18448 26631 2219 10413 18448 26628 2220 10412 18445 26623 2223 10412 18443 26621 2224 10412 18439 26616 2226 10411 18438 26617 2223 10407 18435 26613 2224 10405 18433 26611 2221 10402 18432 26607 2216 10396 18430 26606 2211 10391 18427 26604 2207 10384 18424 26601 2200 10375 18421 26599 2192 10368 18419 26595 2193 10368 18419 26598 2189 10361 18416 26597 2186 10355 18416 26599 2178 10345 18412 26596 2174 10337 18409 26595 2167 10329 18406 26592 2161 10320 18404 26593 2156 10314 18401 26590 2152 10307 18398 26588 2149 10302 18397 26587 2142 10295 18394 26584 2141 10292 18392 26585 2136 10285 18388 26582 2135 10281 18387 26583 2131 10276 18384 26580 2131 10273 18382 26581 2129 10269 18381 26578 2126 10265 18381 26580 2123 10263 18379 26577 2120 10259 18377 26577 2117 10255 18376 26575 2111 10250 18374 26573 2111 10249 18373 26573 2107 10245 18371 26570 2107 10244 18373 26572 2104 10242 18372 26569 2104 10240 18370 26570 2101 10236 18368 26566 2100 10232 18367 26567 2097 10229 18365 26564 2098 10228 18363 26564 2097 10226 18363 26562 2097 10227 18364 26562 2104 10235 18366 26562 2111 10243 18367 26562 2125 10259 18373 26565 2135 10273 18375 26561 2152 10293 18377 26563 2174 10318 18381 26563 2198 10342 18384 26566 2217 10359 18382 26560 2239 10377 18379 26557 2257 10390 18374 26552 2267 10398 18371 26552 2276 10406 18371 26550 2281 10412 18371 26551 2282 10416 18377 26555 2273 10414 18383 26559 2265 10413 18391 26568 2252 10408 18399 26575 2237 10401 18408 26586 2217 10388 18415 26590 2198 10374 18420 26596 2176 10356 18423 26597 2153 10337 18424 26602 2134 10320 18425 26602 2116 10303 18424 26604 2102 10289 18425 26606 2088 10275 18423 26605 2082 10268 18423 26608 2073 10259 18421 26607 2068 10255 18424 26611 2065 10253 18425 26612 2063 10251 18427 26614 2059 10250 18430 26614 2054 10249 18433 26618 2054 10251 18437 26619 2050 10250 18439 26621 2048 10252 18444 26623 2047 10253 18446 26624 2052 10259 18449 26628 2053 10262 18451 26627 2056 10268 18454 26631 2060 10273 18454 26629 2065 10277 18455 26631 2064 10276 18453 26630 2067 10280 18452 26631 2076 10289 18452 26632 2079 10291 18452 26634 2079 10291 18451 26636 2076 10287 18448 26636 2078 10285 18446 26636 2073 10277 18441 26633 2070 10271 18439 26633 2068 10264 18435 26627 2065 10256 18429 26625 2059 10245 18422 26619 2053 10235 18417 26617 2050 10226 18412 26612 2046 10217 18407 26609 2039 10207 18402 26604 2032 10196 18397 26600 2032 10188 18392 26595 2025 10179 18384 26590 2021 10171 18381 26588 2018 10162 18376 26581 2018 10155 18370 26580 2014 10149 18365 26574 2011 10143 18362 26574 2012 10137 18357 26569 2012 10135 18353 26567 2010 10130 18349 26563 2007 10125 18346 26562 2010 10121 18342 26558 2007 10117 18336 26556 2006 10114 18335 26554 2006 10108 18332 26551 2007 10106 18329 26550 2005 10103 18326 26546 2002 10101 18327 26548 2003 10097 18325 26545 2003 10097 18323 26545 2002 10094 18322 26542 1997 10084 18318 26542 1999 10086 18319 26541 2000 10093 18322 26544 2002 10096 18325 26548 2001 10095 18325 26548 2002 10094 18325 26548 1997 10091 18322 26545 1994 10088 18323 26545 1992 10084 18323 26542 1991 10083 18322 26541 1988 10082 18322 26539 1985 10081 18324 26542 1986 10081 18325 26542 1986 10084 18326 26545 1984 10087 18330 26548 1982 10087 18333 26550 1985 10090 18336 26553 1982 10092 18337 26554 1982 10097 18342 26558 1984 10100 18345 26558 1987 10105 18348 26562 1986 10111 18351 26562 1987 10116 18355 26567 1992 10121 18359 26568 1996 10129 18362 26571 1998 10137 18368 26573 2001 10142 18371 26575 2009 10152 18375 26578 2012 10158 18378 26580 2015 10167 18383 26585 2021 10175 18387 26586 2028 10184 18391 26591 2032 10192 18395 26592 2036 10201 18401 26598 2043 10209 18405 26600 2048 10219 18410 26605 2052 10228 18416 26607 2053 10235 18422 26611 2060 10245 18428 26614 2058 10248 18430 26615 2063 10260 18436 26620 2071 10274 18442 26622 2079 10284 18446 26630 2080 10288 18449 26632 2080 10292 18453 26638 2082 10296 18457 26639 2083 10300 18461 26642 2082 10302 18465 26643 2080 10303 18467 26645 2086 10307 18469 26646 2085 10308 18469 26646 2086 10312 18472 26648 2087 10313 18472 26646 2093 10317 18473 26649 2092 10318 18473 26648 2092 10321 18475 26651 2094 10321 18474 26650 2096 10323 18474 26651 2095 10322 18475 26651 2093 10321 18474 26652 2096 10321 18474 26652 2094 10320 18472 26653 2093 10320 18473 26653 2091 10317 18471 26651 2095 10317 18471 26652 2092 10315 18469 26650 2091 10314 18469 26652 2092 10312 18468 26650 2094 10312 18466 26650 2095 10312 18467 26648 2094 10312 18465 26648 2100 10314 18464 26646 2102 10317 18462 26646 2104 10319 18462 26645 2102 10317 18460 26643 2107 10318 18459 26643 2104 10313 18455 26640 2100 10305 18453 26640 2096 10299 18450 26634 2098 10300 18449 26634 2096 10296 18447 26633 2092 10290 18444 26633 2089 10284 18440 26629 2085 10277 18436 26628 2080 10271 18434 26626 2074 10265 18431 26624 2075 10263 18429 26623 2071 10257 18425 26618 2072 10256 18425 26618 2072 10254 18423 26613 2074 10254 18421 26613 2073 10251 18419 26609 2072 10250 18418 26611 2072 10249 18415 26607 2073 10247 18413 26607 2072 10245 18411 26605 2070 10243 18409 26604 2075 10244 18408 26603 2074 10242 18405 26601 2075 10242 18406 26602 2074 10241 18405 26599 2078 10242 18404 26601 2077 10241 18402 26598 2078 10241 18403 26600 2078 10240 18401 26597 2081 10241 18400 26597 2080 10240 18399 26595 2077 10238 18399 26595 2078 10236 18397 26593 2074 10232 18394 26591 2072 10226 18393 26589 2065 10217 18389 26584 2062 10209 18385 26583 2053 10198 18380 26578 2044 10186 18377 26579 2032 10166 18371 26572 2021 10153 18366 26568 2011 10145 18363 26567 2002 10133 18360 26567 1997 10121 18355 26563 1987 10110 18350 26559 1977 10097 18347 26557 1965 10083 18345 26554 1958 10074 18344 26554 1950 10068 18343 26553 1947 10068 18348 26556 1950 10075 18353 26556 1966 10096 18359 26561 1994 10131 18368 26564 2040 10185 18378 26570 2104 10254 18386 26570 2182 10337 18393 26569 2259 10416 18397 26564 2327 10481 18396 26554 2390 10535 18389 26542 2443 10573 18373 26524 2486 10594 18355 26506 2505 10588 18329 26482 2506 10563 18300 26462 2486 10517 18274 26445 5000 2435 10456 18259 26442 2362 10376 18254 26445 2278 10298 18258 26459 2190 10225 18273 26476 2104 10160 18293 26498 2037 10115 18316 26521 1983 10084 18337 26541 1939 10066 18359 26561 1907 10054 18376 26576 1887 10052 18393 26593 1875 10056 18409 26605 1871 10066 18427 26620 1872 10081 18442 26630 1881 10103 18459 26641 1890 10123 18471 26649 1908 10154 18487 26660 1932 10192 18502 26670 1952 10220 18509 26677 1970 10242 18516 26684 1982 10256 18517 26684 1992 10264 18515 26688 1999 10265 18509 26686 2006 10267 18505 26689 2009 10267 18498 26685 2014 10264 18492 26682 2015 10260 18485 26677 2013 10252 18479 26672 2011 10246 18474 26666 2006 10236 18468 26662 2001 10227 18466 26659 1993 10216 18462 26655 1991 10211 18459 26655 1988 10206 18457 26655 1989 10207 18458 26660 1991 10211 18459 26663 1999 10218 18461 26669 2005 10226 18464 26671 2010 10233 18466 26675 2016 10241 18468 26676 6000 2018 10246 18469 26677 2018 10248 18473 26679 2012 10248 18476 26680 2008 10248 18482 26684 1999 10243 18486 26687 1988 10238 18494 26695 1973 10229 18499 26698 1957 10219 18505 26705 1938 10204 18509 26708 1916 10186 18513 26714 1890 10165 18514 26716 1867 10143 18516 26721 1841 10120 18518 26722 1806 10085 18516 26721 1781 10064 18520 26727 1758 10047 18523 26731 1738 10031 18528 26738 1715 10013 18532 26741 1698 10000 18535 26748 1686 9989 18536 26751 1676 9982 18539 26759 1667 9977 18541 26761 1668 9979 18542 26765 1672 9983 18542 26766 1676 9989 18542 26769 1688 10001 18544 26771 1703 10015 18543 26772 1722 10033 18545 26774 1738 10050 18546 26772 1761 10071 18546 26772 1784 10092 18545 26768 1808 10114 18545 26768 1831 10135 18542 26764 1857 10157 18540 26760 1881 10176 18536 26754 1903 10194 18532 26751 1927 10212 18529 26746 1948 10228 18524 26741 1969 10245 18522 26738 1985 10258 18519 26733 2002 10273 18517 26732 2015 10282 18513 26727 2027 10291 18513 26727 2035 10299 18510 26723 2044 10306 18508 26721 2049 10309 18506 26716 2052 10311 18505 26713 2057 10315 18504 26709 2059 10315 18502 26707 2062 10318 18503 26705 2061 10317 18502 26700 2064 10317 18500 26698 2060 10312 18495 26692 2065 10317 18498 26693 2069 10324 18498 26690 2077 10329 18498 26688 2082 10332 18496 26686 2085 10335 18495 26684 2095 10340 18494 26680 2101 10347 18492 26676 2109 10354 18492 26674 2117 10359 18490 26670 2133 10369 18488 26669 2141 10377 18485 26664 2153 10387 18486 26665 2161 10393 18484 26661 2172 10401 18482 26661 2180 10409 18481 26657 2186 10414 18480 26657 2191 10416 18477 26654 2198 10421 18474 26652 2203 10425 18473 26649 2203 10424 18470 26646 2208 10426 18469 26645 2210 10427 18466 26641 2213 10429 18466 26642 2211 10427 18465 26638 2212 10426 18464 26639 2211 10424 18462 26635 2209 10422 18461 26636 2205 10416 18459 26633 2204 10413 18457 26633 2199 10408 18456 26630 2192 10400 18454 26629 2189 10395 18453 26628 2184 10388 18450 26626 2180 10383 18450 26627 2173 10375 18447 26624 2170 10370 18446 26625 2165 10363 18442 26622 2158 10353 18440 26622 2151 10345 18437 26617 2152 10346 18437 26618 2149 10342 18436 26618 2143 10334 18434 26618 2140 10329 18432 26615 2134 10320 18429 26612 2130 10314 18427 26612 2124 10306 18423 26608 2123 10300 18420 26608 2119 10293 18415 26604 2116 10289 18414 26606 2112 10284 18412 26604 2112 10281 18409 26603 2109 10277 18407 26600 2106 10273 18404 26601 2106 10271 18402 26598 2104 10266 18398 26596 2104 10264 18398 26594 2100 10260 18395 26591 2102 10259 18394 26592 2099 10255 18391 26589 2099 10253 18392 26591 2096 10250 18390 26588 2098 10248 18389 26587 2097 10245 18387 26584 2095 10242 18387 26584 2094 10241 18384 26582 2094 10238 18381 26581 2095 10237 18381 26580 2094 10237 18380 26579 2100 10242 18380 26580 2104 10248 18380 26579 2116 10260 18386 26583 2126 10275 18390 26583 2144 10296 18394 26586 2161 10316 18398 26583 2180 10335 18400 26587 2194 10349 18399 26581 2213 10365 18396 26577 2233 10385 18396 26575 2247 10400 18396 26573 2263 10414 18396 26573 2272 10422 18394 26570 2278 10429 18398 26572 2275 10429 18400 26571 2272 10428 18403 26575 2264 10423 18407 26576 2252 10416 18413 26583 2235 10404 18417 26585 2220 10394 18422 26591 2202 10379 18426 26594 2180 10361 18428 26599 2163 10345 18431 26602 2143 10326 18429 26603 2126 10310 18431 26606 2109 10293 18429 26604 2097 10279 18427 26607 2084 10265 18425 26604 2073 10255 18424 26608 2066 10247 18423 26606 2059 10242 18424 26607 2051 10236 18425 26607 2044 10231 18427 26609 2042 10230 18431 26611 2035 10227 18433 26614 2030 10226 18439 26617 2026 10225 18441 26619 2026 10227 18445 26624 2023 10227 18448 26625 2024 10231 18452 26630 2025 10235 18454 26632 2030 10241 18455 26635 2033 10247 18457 26636 2035 10251 18458 26638 2041 10258 18459 26640 2045 10262 18459 26640 2045 10261 18458 26642 2046 10265 18458 26640 2055 10274 18459 26643 2057 10276 18459 26643 2058 10276 18459 26647 2057 10272 18457 26645 2055 10267 18453 26644 2051 10259 18449 26641 2046 10251 18445 26640 2044 10244 18440 26636 2039 10236 18434 26632 2034 10227 18432 26630 2028 10218 18427 26627 2026 10211 18422 26625 2020 10201 18417 26622 2016 10193 18415 26621 2013 10185 18410 26615 2010 10178 18406 26614 2006 10171 18402 26609 2002 10163 18398 26608 2000 10156 18393 26604 1998 10151 18389 26602 1994 10146 18387 26600 1989 10140 18384 26598 1989 10137 18382 26596 1985 10132 18379 26594 1983 10129 18379 26594 1980 10124 18376 26591 1980 10122 18374 26592 1978 10119 18372 26590 1976 10116 18372 26592 1975 10112 18369 26590 1975 10110 18367 26589 1974 10108 18366 26589 1971 10104 18365 26589 1972 10103 18364 26587 1970 10101 18362 26587 1969 10101 18364 26588 1965 10093 18363 26582 1965 10093 18362 26582 1966 10098 18364 26582 1968 10101 18367 26586 1967 10101 18367 26584 1968 10102 18368 26584 1965 10100 18368 26584 1962 10097 18368 26585 1962 10097 18368 26582 1962 10097 18368 26581 1962 10099 18370 26583 1961 10098 18371 26582 1963 10101 18373 26584 1963 10103 18374 26585 1965 10107 18377 26590 1965 10109 18379 26591 1968 10114 18382 26593 1968 10119 18386 26596 1968 10123 18389 26599 1969 10128 18392 26601 1972 10134 18396 26605 1974 10140 18401 26608 1974 10143 18404 26609 1978 10150 18408 26613 1979 10155 18412 26615 1982 10162 18418 26620 1983 10166 18421 26621 1987 10174 18424 26625 1989 10179 18428 26627 1991 10184 18431 26630 1993 10189 18434 26633 1996 10195 18436 26635 2000 10201 18441 26637 2001 10206 18442 26639 2007 10214 18446 26641 2010 10219 18448 26642 2015 10226 18453 26646 2018 10232 18457 26645 2021 10238 18459 26649 2020 10237 18460 26649 2024 10244 18464 26651 2030 10259 18468 26652 2036 10265 18470 26655 2039 10269 18472 26658 2038 10271 18473 26659 2043 10275 18474 26660 2043 10276 18474 26661 2045 10279 18478 26664 2046 10281 18479 26663 2049 10285 18479 26666 2050 10287 18480 26667 2051 10289 18482 26671 2052 10292 18482 26671 2053 10294 18482 26672 2053 10295 18483 26673 2052 10293 18484 26675 2055 10296 18484 26674 2054 10295 18483 26674 2056 10296 18484 26675 2055 10295 18484 26672 2058 10297 18483 26674 2058 10295 18482 26672 2059 10295 18482 26674 2059 10294 18480 26672 2061 10292 18478 26671 2059 10290 18478 26670 2055 10285 18475 26669 2056 10285 18473 26667 2054 10282 18471 26666 2055 10282 18471 26665 2054 10282 18469 26663 2060 10286 18468 26663 2061 10286 18467 26661 2063 10288 18467 26661 2064 10287 18465 26659 2067 10287 18463 26658 2064 10283 18462 26655 2058 10274 18458 26653 2056 10270 18455 26649 2055 10269 18454 26648 2053 10266 18455 26649 2047 10260 18452 26647 2043 10253 18449 26646 2035 10242 18445 26642 2030 10234 18443 26642 2024 10226 18440 26638 2021 10222 18438 26638 2018 10217 18437 26638 2015 10214 18437 26639 2015 10213 18436 26639 2015 10212 18436 26639 2015 10211 18437 26640 2012 10208 18435 26639 2014 10209 18435 26639 2012 10208 18434 26637 2014 10209 18436 26639 2014 10209 18435 26636 2017 10211 18434 26638 2018 10212 18434 26636 2020 10213 18433 26638 2022 10215 18432 26637 2026 10217 18432 26638 2027 10219 18433 26637 2027 10219 18432 26637 2031 10221 18432 26637 2030 10221 18431 26636 2031 10223 18432 26638 2031 10223 18433 26636 2033 10224 18433 26637 2031 10223 18434 26635 2029 10222 18435 26636 2028 10219 18434 26634 2026 10216 18432 26634 2022 10211 18432 26632 2013 10201 18430 26631 2006 10189 18426 26628 1995 10175 18421 26624 1988 10170 18420 26624 1979 10160 18419 26621 1971 10149 18415 26621 1960 10135 18411 26617 1949 10120 18407 26616 1935 10103 18402 26611 1925 10090 18399 26610 1914 10079 18398 26608 1904 10070 18397 26610 1903 10072 18400 26611 1911 10085 18405 26614 1934 10113 18414 26619 1973 10157 18422 26622 2038 10226 18430 26625 2114 10306 18435 26621 2200 10392 18440 26616 2277 10466 18437 26603 2353 10531 18429 26588 2420 10581 18413 26568 2470 10609 18390 26547 2501 10613 18362 26521 2519 10601 18330 26496 2515 10569 18302 26476 2474 10515 18282 26464 5000 2414 10444 18274 26465 2329 10361 18273 26471 2240 10281 18285 26489 2149 10207 18301 26506 2071 10149 18321 26528 2007 10107 18341 26546 1950 10077 18360 26565 1910 10056 18377 26581 1884 10048 18393 26597 1867 10048 18409 26610 1856 10052 18424 26621 1856 10068 18440 26632 1862 10085 18453 26642 1869 10102 18467 26651 1882 10128 18482 26657 1901 10158 18494 26669 1917 10180 18499 26673 1931 10195 18502 26679 1938 10202 18501 26677 1945 10205 18497 26676 1949 10204 18492 26674 1951 10203 18488 26674 1958 10205 18485 26674 1962 10207 18482 26674 1968 10212 18484 26677 1969 10215 18485 26675 1971 10217 18487 26679 1970 10217 18487 26678 1969 10217 18491 26684 1966 10216 18492 26685 1968 10218 18493 26688 1970 10220 18493 26689 1973 10224 18494 26692 1982 10233 18495 26693 1991 10241 18495 26695 2002 10254 18498 26697 2009 10263 18500 26697 2017 10272 18501 26701 2019 10276 18502 26700 6000 2017 10278 18507 26706 2009 10276 18510 26707 1999 10270 18514 26711 1984 10258 18517 26710 1964 10241 18520 26714 1943 10223 18522 26714 1921 10203 18522 26716 1900 10183 18526 26718 1871 10157 18527 26719 1847 10134 18529 26723 1821 10110 18528 26723 1798 10087 18531 26729 1766 10053 18530 26728 1743 10032 18530 26731 1724 10016 18531 26734 1705 9998 18532 26741 1686 9981 18531 26742 1672 9967 18529 26744 1659 9955 18528 26745 1645 9942 18526 26746 1641 9936 18526 26749 1640 9934 18523 26748 1645 9937 18524 26751 1648 9940 18523 26750 1659 9950 18522 26752 1673 9963 18520 26750 1688 9978 18521 26752 1704 9992 18520 26749 1725 10012 18519 26748 1746 10031 18518 26744 1765 10048 18515 26740 1790 10070 18514 26737 1814 10090 18511 26731 1840 10113 18512 26730 1863 10134 18511 26725 1889 10155 18508 26723 1912 10175 18505 26717 1936 10195 18504 26716 1957 10211 18500 26710 1979 10228 18497 26706 1998 10242 18493 26699 2013 10254 18489 26693 2031 10267 18486 26688 2044 10275 18481 26683 2058 10285 18479 26679 2069 10292 18474 26671 2083 10301 18470 26668 2091 10306 18467 26661 2098 10312 18464 26658 2108 10316 18461 26653 2116 10321 18458 26648 2119 10320 18454 26643 2122 10324 18451 26639 2135 10336 18452 26636 2141 10342 18451 26634 2149 10347 18452 26633 2151 10349 18450 26627 2157 10353 18448 26626 2161 10356 18446 26621 2167 10362 18446 26621 2169 10364 18445 26618 2178 10371 18444 26618 2182 10375 18445 26616 2186 10380 18445 26617 2190 10384 18447 26616 2194 10389 18446 26617 2198 10394 18449 26617 2198 10395 18449 26616 2203 10399 18450 26618 2204 10401 18449 26616 2206 10404 18451 26619 2205 10404 18450 26618 2208 10406 18450 26619 2209 10407 18450 26617 2208 10407 18449 26619 2206 10405 18449 26617 2206 10406 18448 26618 2205 10406 18449 26619 2200 10402 18449 26619 2199 10400 18450 26621 2195 10397 18448 26620 2193 10394 18449 26624 2188 10388 18448 26623 2186 10384 18447 26624 2181 10379 18446 26622 2176 10373 18445 26623 2169 10365 18442 26620 2167 10360 18439 26621 2163 10353 18437 26617 2152 10341 18433 26614 2150 10335 18429 26612 2149 10333 18426 26611 2150 10332 18427 26613 2146 10326 18424 26609 2145 10321 18420 26609 2140 10313 18415 26605 2137 10308 18412 26605 2133 10302 18409 26601 2134 10298 18405 26598 2132 10294 18402 26595 2129 10289 18399 26594 2130 10288 18397 26592 2129 10284 18394 26590 2130 10283 18394 26590 2128 10280 18392 26586 2130 10281 18390 26586 2129 10278 18388 26582 2130 10278 18388 26584 2129 10277 18386 26581 2131 10277 18384 26580 2131 10276 18383 26578 2129 10274 18383 26578 2130 10275 18383 26577 2130 10274 18382 26576 2131 10274 18384 26575 2129 10272 18384 26573 2130 10272 18384 26574 2128 10269 18383 26572 2128 10268 18384 26575 2125 10266 18383 26573 2126 10265 18382 26574 2124 10263 18381 26572 2124 10262 18382 26573 2126 10266 18381 26573 2131 10271 18381 26574 2140 10282 18384 26575 2148 10294 18386 26573 2164 10311 18388 26575 2177 10325 18388 26572 2199 10349 18393 26575 2217 10368 18396 26573 2238 10388 18396 26573 2255 10402 18394 26569 2267 10413 18393 26569 2273 10421 18393 26565 2282 10429 18394 26566 2284 10433 18397 26567 2278 10431 18400 26569 2272 10429 18406 26574 2260 10422 18410 26577 2246 10413 18417 26584 2226 10397 18421 26586 2208 10381 18423 26591 2186 10361 18424 26591 2165 10341 18424 26596 2143 10321 18423 26595 2124 10302 18421 26597 2105 10283 18421 26598 2086 10266 18419 26599 2075 10253 18419 26601 2062 10240 18418 26602 2052 10232 18421 26606 2045 10225 18422 26606 2039 10221 18424 26611 2031 10217 18427 26612 2025 10214 18430 26617 2019 10212 18433 26620 2016 10212 18438 26624 2011 10212 18443 26628 2006 10211 18446 26631 2005 10213 18450 26634 2003 10214 18452 26638 2005 10217 18456 26642 2004 10220 18458 26643 2008 10224 18460 26647 2009 10226 18460 26647 2010 10225 18460 26649 2012 10229 18460 26647 2021 10240 18462 26648 2028 10248 18463 26651 2032 10252 18461 26652 2038 10255 18458 26649 2041 10254 18453 26646 2045 10254 18450 26644 2047 10253 18445 26639 2054 10253 18440 26637 2055 10249 18434 26632 2057 10247 18430 26630 2061 10245 18424 26626 2063 10242 18420 26623 2063 10238 18415 26618 2061 10232 18411 26616 2062 10228 18406 26611 2059 10222 18401 26608 2056 10215 18399 26606 2051 10207 18395 26602 2050 10202 18391 26601 2044 10194 18387 26597 2039 10187 18386 26598 2036 10179 18383 26595 2033 10174 18379 26595 2027 10167 18377 26592 2021 10160 18376 26593 2019 10154 18374 26591 2015 10150 18371 26591 2009 10145 18371 26591 2004 10139 18370 26590 2003 10136 18369 26590 1998 10132 18367 26589 1995 10131 18369 26591 1992 10127 18368 26589 1992 10126 18368 26591 1989 10125 18368 26590 1986 10122 18368 26593 1982 10114 18367 26591 1979 10112 18366 26589 1979 10116 18369 26591 1978 10115 18370 26593 1981 10117 18370 26593 1979 10115 18369 26592 1978 10113 18371 26592 1975 10111 18372 26588 1976 10111 18371 26590 1975 10111 18370 26589 1976 10112 18371 26590 1977 10112 18371 26589 1980 10116 18371 26589 1982 10119 18372 26589 1982 10120 18373 26590 1987 10124 18374 26589 1989 10127 18374 26589 1991 10132 18377 26590 1993 10135 18378 26588 1998 10140 18379 26590 1999 10143 18380 26588 2001 10148 18383 26591 2004 10151 18384 26590 2009 10157 18385 26592 2011 10161 18387 26592 2013 10164 18389 26594 2018 10169 18391 26594 2020 10173 18392 26596 2021 10178 18396 26597 2023 10182 18398 26598 2029 10189 18402 26601 2030 10193 18404 26601 2032 10200 18408 26605 2037 10205 18410 26606 2042 10212 18412 26609 2045 10218 18415 26610 2047 10224 18418 26613 2054 10230 18421 26615 2056 10235 18423 26615 2054 10235 18425 26617 2055 10240 18427 26616 2065 10254 18432 26622 2067 10260 18435 26623 2069 10265 18439 26629 2071 10267 18441 26629 2071 10268 18443 26631 2069 10268 18444 26631 2067 10269 18445 26634 2070 10271 18446 26634 2070 10271 18446 26635 2069 10272 18448 26637 2068 10272 18449 26637 2073 10275 18451 26640 2070 10275 18451 26639 2070 10276 18453 26643 2072 10278 18453 26641 2074 10280 18453 26644 2074 10281 18453 26643 2073 10282 18454 26645 2078 10284 18454 26645 2079 10285 18454 26646 2080 10287 18456 26647 2079 10287 18456 26647 2084 10292 18458 26648 2082 10291 18458 26647 2083 10294 18460 26649 2084 10294 18461 26647 2087 10295 18461 26649 2085 10294 18461 26647 2084 10295 18462 26649 2088 10295 18461 26648 2090 10298 18461 26648 2092 10301 18462 26648 2090 10302 18461 26648 2095 10304 18461 26647 2093 10303 18459 26646 2091 10302 18460 26646 2086 10295 18458 26640 2082 10289 18456 26640 2078 10287 18455 26638 2076 10287 18456 26640 2075 10281 18455 26639 2069 10274 18452 26638 2061 10263 18449 26635 2053 10253 18445 26633 2049 10245 18441 26629 2042 10237 18437 26627 2037 10230 18436 26627 2032 10225 18434 26625 2032 10224 18434 26627 2030 10221 18433 26625 2030 10221 18434 26628 2029 10220 18433 26627 2030 10219 18432 26628 2029 10217 18431 26627 2027 10214 18429 26628 2027 10213 18428 26627 2026 10212 18426 26627 2026 10212 18427 26628 2025 10210 18425 26627 2029 10212 18426 26627 2028 10211 18425 26626 2030 10214 18426 26627 2032 10214 18425 26625 2036 10217 18425 26626 2037 10218 18425 26624 2038 10220 18424 26625 2043 10222 18423 26624 2046 10224 18422 26624 2047 10227 18423 26625 2047 10227 18422 26625 2052 10229 18423 26626 2049 10228 18422 26626 2047 10227 18424 26628 2043 10223 18423 26624 2039 10216 18422 26625 2027 10202 18418 26622 2020 10196 18417 26621 2014 10190 18417 26620 2007 10181 18415 26621 1996 10168 18413 26621 1980 10150 18409 26621 1968 10136 18405 26620 1953 10119 18402 26619 1939 10104 18402 26620 1923 10088 18400 26616 1914 10080 18401 26620 1911 10081 18404 26619 1920 10095 18411 26626 1942 10123 18418 26629 1989 10175 18426 26634 2053 10245 18435 26636 2131 10327 18440 26633 2213 10408 18441 26622 2294 10483 18436 26608 2372 10548 18427 26591 2432 10590 18408 26568 2480 10613 18383 26544 2514 10618 18351 26516 2530 10604 18323 26494 2513 10565 18297 26476 2475 10510 18280 26469 5000 2405 10439 18275 26469 2320 10357 18281 26482 2228 10280 18293 26498 2141 10211 18309 26519 2066 10156 18329 26538 2000 10112 18348 26556 1951 10083 18366 26574 1912 10063 18381 26587 1885 10054 18399 26604 1864 10049 18413 26614 1857 10054 18427 26627 1856 10066 18441 26636 1856 10076 18453 26645 1866 10099 18468 26651 1884 10129 18481 26660 1901 10155 18490 26667 1914 10174 18495 26672 1928 10190 18499 26677 1936 10198 18497 26677 1944 10203 18497 26681 1948 10204 18493 26678 1952 10204 18489 26679 1955 10203 18484 26676 1958 10203 18483 26679 1958 10204 18484 26679 1959 10207 18486 26680 1957 10208 18489 26681 1950 10206 18492 26682 1948 10206 18496 26684 1944 10203 18497 26685 1944 10204 18500 26689 1944 10205 18501 26688 1951 10209 18500 26691 1958 10215 18499 26691 1968 10225 18502 26697 1976 10235 18502 26698 1987 10246 18504 26703 1993 10254 18506 26704 1994 10258 18508 26707 6000 1994 10262 18511 26708 1989 10258 18511 26709 1980 10252 18515 26711 1964 10240 18517 26711 1948 10226 18519 26713 1929 10207 18519 26712 1908 10187 18522 26718 1883 10165 18524 26719 1861 10145 18526 26724 1836 10123 18528 26725 1808 10098 18530 26732 1779 10069 18530 26730 1754 10045 18529 26730 1735 10029 18532 26736 1713 10010 18533 26737 1698 9995 18534 26744 1683 9980 18532 26745 1672 9968 18534 26750 1658 9956 18533 26751 1652 9950 18533 26754 1650 9948 18531 26754 1649 9947 18531 26758 1650 9949 18531 26757 1658 9957 18530 26757 1669 9968 18531 26757 1678 9979 18531 26756 1694 9995 18533 26758 1711 10013 18532 26755 1732 10033 18536 26758 1750 10052 18537 26756 1773 10074 18537 26755 1796 10095 18536 26750 1819 10116 18536 26750 1841 10136 18534 26744 1866 10156 18530 26741 1890 10175 18526 26735 1910 10192 18521 26729 1934 10210 18517 26724 1954 10224 18510 26716 1975 10240 18508 26713 1992 10253 18504 26706 2009 10266 18501 26703 2023 10275 18496 26696 2036 10282 18493 26693 2046 10290 18488 26686 2058 10296 18483 26681 2067 10300 18480 26675 2072 10302 18474 26670 2083 10308 18471 26665 2088 10309 18466 26660 2092 10310 18463 26656 2099 10314 18460 26649 2111 10326 18459 26649 2119 10332 18458 26648 2125 10337 18457 26648 2131 10340 18455 26645 2138 10345 18453 26642 2143 10349 18452 26639 2146 10352 18449 26637 2155 10358 18448 26634 2160 10362 18445 26631 2167 10370 18447 26630 2171 10374 18447 26626 2179 10382 18449 26627 2184 10387 18450 26624 2190 10394 18453 26627 2191 10397 18453 26626 2198 10403 18455 26628 2200 10407 18456 26627 2201 10409 18457 26629 2203 10412 18458 26629 2206 10415 18458 26629 2208 10419 18461 26630 2205 10419 18462 26629 2208 10421 18463 26631 2207 10421 18462 26630 2208 10423 18464 26634 2204 10420 18463 26633 2206 10420 18463 26635 2203 10418 18464 26634 2199 10415 18464 26636 2196 10411 18463 26635 2194 10407 18460 26634 2192 10404 18460 26633 2186 10396 18457 26631 2186 10392 18455 26630 2182 10386 18450 26627 2182 10381 18448 26628 2174 10370 18443 26622 2171 10361 18438 26618 2169 10358 18434 26616 2169 10355 18431 26618 2167 10349 18427 26614 2165 10343 18423 26611 2162 10335 18419 26608 2156 10327 18414 26604 2157 10323 18410 26602 2155 10316 18404 26597 2156 10312 18401 26596 2154 10307 18397 26589 2155 10304 18393 26588 2155 10300 18389 26583 2155 10297 18387 26583 2153 10294 18384 26579 2155 10292 18381 26578 2154 10289 18379 26574 2150 10285 18376 26572 2152 10285 18376 26570 2150 10282 18373 26568 2151 10282 18374 26569 2148 10280 18374 26566 2148 10280 18373 26567 2145 10277 18372 26564 2145 10277 18373 26567 2142 10275 18372 26565 2145 10274 18371 26565 2143 10272 18370 26563 2140 10269 18368 26563 2140 10270 18367 26562 2138 10268 18365 26561 2139 10269 18367 26562 2138 10269 18369 26561 2142 10274 18370 26564 2146 10280 18372 26562 2155 10291 18377 26567 2163 10304 18380 26567 2178 10321 18384 26567 2190 10333 18384 26564 2205 10351 18387 26566 2224 10371 18389 26564 2244 10389 18387 26562 2261 10403 18386 26561 2269 10411 18385 26557 2280 10420 18385 26557 2285 10426 18384 26555 2288 10430 18388 26560 2281 10426 18390 26561 2275 10422 18394 26566 2263 10415 18398 26568 2247 10403 18403 26575 2228 10388 18406 26576 2211 10371 18407 26579 2192 10353 18408 26581 2171 10333 18406 26582 2156 10316 18405 26584 2138 10298 18401 26583 2125 10284 18403 26587 2111 10271 18402 26586 2101 10260 18402 26589 2090 10250 18403 26588 2080 10243 18405 26592 2074 10239 18407 26594 2067 10234 18410 26598 2061 10232 18414 26600 2054 10229 18416 26602 2053 10230 18421 26605 2046 10229 18423 26606 2041 10229 18427 26610 2039 10229 18429 26611 2039 10231 18431 26616 2037 10233 18434 26616 2037 10235 18437 26621 2039 10239 18438 26623 2042 10242 18438 26626 2043 10246 18440 26627 2041 10244 18439 26628 2047 10249 18439 26628 2051 10255 18439 26629 2058 10264 18442 26633 2064 10268 18442 26631 2068 10270 18440 26634 2067 10269 18438 26632 2067 10267 18436 26634 2070 10266 18433 26632 2071 10262 18430 26630 2070 10257 18425 26627 2067 10251 18421 26624 2069 10248 18418 26620 2065 10241 18412 26615 2063 10234 18410 26612 2060 10226 18405 26606 2059 10219 18400 26605 2052 10209 18395 26601 2047 10201 18392 26601 2043 10191 18388 26597 2039 10184 18384 26594 2033 10176 18381 26590 2027 10166 18378 26588 2025 10159 18374 26584 2020 10152 18369 26583 2015 10146 18368 26582 2011 10138 18365 26579 2012 10135 18363 26579 2007 10131 18359 26577 2004 10129 18360 26579 2003 10125 18358 26577 2004 10124 18357 26578 2002 10123 18356 26576 2000 10122 18357 26577 2003 10122 18356 26576 2003 10123 18355 26577 2002 10125 18357 26577 2002 10124 18358 26575 2006 10122 18355 26575 2001 10118 18351 26571 2003 10126 18355 26574 2009 10130 18357 26572 2012 10133 18356 26573 2012 10133 18355 26571 2010 10132 18356 26572 2011 10131 18356 26570 2009 10131 18356 26570 2006 10131 18357 26569 2004 10128 18356 26568 2007 10129 18356 26568 2005 10129 18356 26566 2004 10132 18360 26569 2005 10132 18361 26566 2006 10135 18362 26568 2004 10136 18362 26567 2004 10138 18365 26570 2006 10139 18366 26570 2007 10143 18367 26572 2007 10146 18370 26572 2008 10149 18372 26573 2013 10154 18375 26574 2013 10158 18375 26574 2015 10163 18379 26577 2018 10167 18381 26576 2024 10173 18383 26580 2025 10177 18385 26579 2026 10183 18390 26584 2031 10187 18392 26583 2035 10193 18394 26585 2037 10198 18396 26586 2039 10202 18398 26588 2046 10209 18400 26589 2048 10214 18402 26591 2052 10222 18407 26595 2055 10228 18409 26597 2062 10235 18413 26601 2063 10239 18415 26602 2063 10242 18418 26606 2066 10249 18422 26605 2073 10261 18427 26609 2077 10269 18433 26612 2078 10274 18437 26616 2082 10279 18440 26618 2082 10282 18443 26620 2082 10286 18447 26625 2081 10288 18450 26627 2085 10293 18453 26631 2082 10293 18454 26631 2083 10297 18457 26635 2085 10299 18459 26634 2087 10303 18460 26636 2087 10305 18462 26636 2085 10306 18463 26639 2088 10308 18464 26639 2086 10309 18465 26641 2086 10311 18468 26643 2085 10311 18469 26644 2089 10314 18471 26647 2087 10314 18472 26647 2085 10316 18476 26650 2085 10315 18477 26650 2083 10316 18478 26655 2076 10312 18482 26658 2068 10310 18488 26665 2063 10310 18493 26670 2060 10309 18496 26673 2057 10308 18497 26675 2052 10304 18497 26675 2053 10305 18497 26676 2051 10303 18496 26677 2052 10306 18499 26680 2052 10306 18499 26678 2056 10309 18497 26680 2057 10308 18495 26677 2057 10306 18493 26679 2056 10300 18488 26674 2053 10292 18483 26670 2052 10288 18481 26670 2050 10286 18478 26671 2051 10282 18474 26669 2046 10273 18468 26665 2041 10266 18465 26665 2035 10259 18463 26660 2031 10253 18461 26661 2027 10246 18458 26658 2025 10242 18456 26658 2024 10238 18452 26655 2025 10235 18448 26652 2026 10232 18446 26649 2026 10231 18442 26647 2030 10231 18439 26644 2031 10229 18435 26641 2034 10228 18433 26638 2034 10226 18429 26633 2040 10226 18425 26631 2040 10225 18422 26627 2043 10227 18421 26627 2047 10227 18417 26624 2051 10230 18415 26623 2054 10231 18414 26619 2055 10232 18412 26618 2061 10234 18410 26615 2063 10234 18407 26613 2066 10235 18407 26610 2065 10234 18405 26607 2070 10236 18404 26605 2069 10234 18402 26601 2069 10234 18403 26602 2069 10233 18402 26599 2070 10233 18401 26600 2067 10229 18399 26596 2062 10222 18397 26597 2060 10215 18393 26594 2053 10206 18390 26589 2043 10189 18384 26585 2034 10179 18381 26581 2031 10174 18379 26582 2022 10163 18373 26578 2013 10151 18370 26577 2004 10137 18366 26571 1996 10125 18361 26570 1984 10112 18357 26565 1972 10098 18355 26565 1962 10085 18353 26562 1955 10079 18353 26561 1950 10078 18356 26561 1953 10086 18360 26562 1974 10110 18366 26563 2010 10150 18372 26563 2068 10211 18382 26566 2137 10286 18388 26562 2213 10366 18391 26560 2290 10441 18391 26550 2362 10506 18388 26541 2418 10551 18376 26524 2468 10582 18357 26505 2505 10593 18332 26480 2518 10578 18303 26459 2508 10545 18276 26440 2475 10490 18253 26430 5000 2414 10424 18245 26431 2333 10343 18247 26439 2247 10269 18259 26457 2161 10201 18276 26475 2085 10146 18300 26500 2022 10105 18322 26520 1973 10080 18343 26541 1935 10064 18363 26557 1904 10054 18381 26574 1885 10051 18398 26588 1874 10056 18413 26601 1871 10067 18430 26613 1866 10075 18443 26619 1876 10098 18459 26629 1891 10128 18473 26638 1912 10161 18488 26651 1929 10187 18498 26658 1946 10210 18504 26664 1959 10225 18507 26668 1968 10235 18508 26673 1975 10242 18507 26673 1980 10244 18503 26674 1984 10244 18500 26674 1984 10241 18494 26671 1986 10239 18490 26670 1984 10232 18484 26665 1983 10225 18481 26663 1977 10216 18477 26656 1973 10207 18472 26652 1967 10196 18468 26647 1962 10186 18464 26646 1957 10180 18461 26644 1957 10178 18458 26646 1957 10179 18460 26649 1958 10182 18460 26652 1967 10190 18463 26657 1974 10199 18464 26658 1985 10210 18468 26663 1991 10219 18471 26661 6000 1997 10228 18473 26664 1998 10233 18477 26664 1997 10236 18482 26668 1992 10237 18485 26669 1988 10236 18490 26673 1979 10233 18495 26676 1965 10225 18500 26681 1952 10217 18505 26686 1935 10203 18507 26690 1917 10189 18512 26696 1893 10169 18515 26696 1868 10145 18516 26702 1841 10119 18515 26703 1819 10103 18522 26714 1792 10084 18527 26717 1772 10068 18532 26723 1751 10051 18535 26726 1729 10033 18538 26733 1711 10020 18542 26735 1700 10012 18543 26739 1694 10007 18546 26743 1687 10004 18547 26743 1689 10007 18549 26748 1695 10014 18548 26748 1705 10024 18550 26753 1712 10034 18551 26753 1728 10049 18551 26754 1744 10065 18551 26752 1760 10080 18551 26753 1779 10098 18550 26750 1801 10117 18547 26747 1825 10136 18546 26744 1844 10154 18543 26740 1869 10174 18541 26737 1890 10191 18537 26731 1914 10210 18536 26730 1934 10226 18531 26726 1956 10242 18528 26723 1975 10256 18523 26717 1992 10268 18520 26716 2008 10280 18515 26711 2022 10290 18509 26708 2035 10299 18507 26704 2043 10304 18503 26700 2054 10312 18500 26696 2060 10314 18497 26690 2066 10318 18496 26689 2070 10319 18493 26683 2076 10321 18490 26681 2078 10320 18488 26678 2077 10316 18484 26674 2081 10317 18482 26669 2086 10325 18482 26666 2091 10329 18483 26666 2094 10330 18481 26663 2103 10335 18480 26662 2105 10337 18477 26658 2111 10343 18477 26657 2119 10346 18475 26652 2131 10353 18472 26651 2139 10359 18469 26647 2148 10366 18466 26647 2157 10372 18463 26642 2169 10381 18461 26640 2178 10387 18459 26636 2184 10392 18457 26634 2195 10399 18455 26632 2203 10405 18451 26629 2211 10413 18452 26628 2215 10417 18450 26624 2222 10422 18450 26625 2226 10426 18449 26621 2230 10429 18450 26623 2230 10429 18448 26620 2235 10432 18448 26620 2236 10433 18447 26618 2234 10432 18445 26618 2234 10431 18445 26617 2235 10430 18443 26617 2234 10431 18445 26617 2229 10427 18445 26615 2227 10424 18446 26615 2222 10420 18445 26612 2218 10417 18447 26614 2210 10409 18447 26613 2207 10405 18446 26614 2200 10399 18446 26612 2193 10390 18443 26614 2186 10381 18441 26610 2178 10370 18437 26606 2175 10366 18436 26607 2169 10361 18436 26606 2169 10356 18434 26608 2163 10347 18430 26605 2159 10340 18428 26607 2151 10331 18424 26603 2149 10324 18420 26600 2144 10317 18415 26596 2140 10309 18410 26595 2136 10303 18405 26591 2134 10297 18400 26589 2133 10293 18397 26587 2128 10286 18393 26584 2129 10283 18390 26584 2126 10276 18385 26580 2126 10273 18385 26580 2122 10269 18383 26576 2123 10267 18382 26576 2120 10264 18381 26573 2117 10261 18382 26576 2114 10259 18381 26574 2114 10257 18380 26574 2113 10255 18380 26573 2108 10251 18379 26572 2109 10250 18379 26571 2106 10246 18376 26568 2107 10244 18378 26569 2104 10242 18377 26567 2107 10243 18377 26569 2107 10243 18377 26567 2110 10246 18380 26571 2113 10253 18381 26570 2124 10265 18384 26574 2135 10280 18388 26574 2147 10297 18392 26576 2165 10317 18396 26576 2184 10336 18396 26573 2203 10351 18395 26570 2220 10368 18393 26564 2242 10388 18390 26566 2261 10402 18386 26562 2274 10413 18385 26564 2278 10417 18384 26561 2282 10421 18386 26563 2278 10420 18388 26565 2268 10414 18392 26570 2257 10407 18398 26573 2242 10397 18402 26576 2225 10386 18410 26582 2203 10371 18415 26585 2185 10357 18420 26591 2163 10339 18423 26593 2145 10325 18427 26599 2126 10309 18428 26600 2113 10296 18428 26603 2099 10284 18428 26603 2087 10274 18428 26607 2080 10268 18429 26608 2073 10262 18429 26611 2067 10259 18432 26614 2062 10258 18435 26616 2062 10260 18438 26620 2056 10258 18441 26621 2053 10259 18446 26626 2050 10260 18449 26627 2050 10261 18452 26630 2048 10262 18455 26630 2047 10263 18458 26634 2049 10268 18460 26636 2052 10271 18461 26638 2055 10277 18465 26641 2056 10280 18466 26643 2064 10287 18468 26647 2065 10290 18468 26648 2067 10294 18470 26652 2069 10293 18469 26650 2070 10292 18466 26650 2072 10294 18466 26650 2073 10294 18465 26653 2077 10292 18463 26652 2074 10286 18459 26650 2069 10277 18456 26648 2062 10267 18450 26643 2061 10259 18445 26640 2053 10247 18437 26634 2047 10235 18432 26631 2041 10223 18424 26622 2038 10212 18416 26618 2031 10201 18409 26611 2025 10190 18403 26608 2022 10179 18397 26603 2018 10170 18391 26599 2012 10161 18385 26594 2006 10151 18380 26590 2006 10144 18373 26584 2003 10137 18366 26579 2002 10133 18363 26577 2001 10127 18358 26572 2003 10124 18353 26572 2000 10120 18348 26568 1999 10117 18346 26568 2001 10113 18342 26564 2002 10112 18339 26563 2001 10109 18336 26560 1999 10105 18335 26559 2002 10103 18332 26556 2000 10101 18327 26554 1999 10099 18327 26553 1998 10095 18324 26550 2000 10093 18323 26550 1997 10091 18321 26546 1994 10090 18322 26548 1994 10086 18321 26546 1993 10083 18320 26544 1987 10077 18318 26540 1986 10081 18320 26543 1991 10087 18324 26545 1991 10091 18326 26547 1990 10092 18328 26550 1987 10089 18330 26550 1987 10088 18330 26550 1983 10086 18328 26548 1981 10085 18330 26550 1981 10083 18329 26548 1982 10083 18330 26549 1980 10084 18330 26549 1979 10085 18333 26553 1981 10087 18335 26554 1981 10092 18338 26556 1980 10096 18342 26558 1979 10098 18345 26560 1983 10104 18348 26561 1984 10109 18350 26562 1986 10117 18356 26567 1990 10122 18360 26568 1994 10130 18363 26573 1996 10137 18367 26574 1999 10144 18371 26579 2005 10151 18374 26580 2011 10160 18377 26583 2014 10168 18382 26585 2018 10175 18386 26587 2027 10185 18391 26589 2031 10193 18393 26590 2036 10204 18399 26593 2043 10213 18402 26594 2052 10223 18405 26598 2057 10231 18409 26599 2062 10240 18414 26604 2069 10250 18417 26606 2075 10259 18421 26610 2078 10267 18426 26611 2077 10269 18428 26614 2084 10277 18432 26614 2088 10287 18435 26617 2095 10297 18441 26623 2097 10301 18444 26623 2102 10307 18446 26627 2100 10308 18447 26627 2101 10311 18450 26632 2100 10312 18452 26631 2102 10314 18453 26633 2101 10314 18454 26633 2098 10313 18454 26635 2100 10314 18455 26634 2098 10313 18454 26635 2098 10314 18455 26636 2096 10312 18455 26635 2100 10314 18455 26636 2098 10313 18454 26635 2100 10315 18456 26638 2099 10314 18455 26637 2101 10317 18455 26638 2100 10316 18456 26636 2098 10315 18456 26638 2100 10315 18456 26637 2099 10314 18455 26637 2099 10314 18456 26637 2096 10311 18454 26636 2099 10311 18453 26636 2096 10308 18451 26634 2096 10308 18451 26637 2096 10306 18450 26635 2100 10308 18448 26636 2101 10309 18448 26632 2103 10311 18448 26633 2106 10312 18448 26632 2108 10313 18446 26632 2108 10312 18446 26630 2104 10308 18444 26627 2105 10304 18441 26626 2097 10294 18437 26621 2096 10293 18438 26622 2095 10293 18438 26620 2094 10289 18437 26621 2088 10280 18434 26618 2082 10272 18431 26619 2077 10265 18426 26615 2072 10257 18424 26614 2067 10250 18421 26613 2062 10244 18418 26612 2063 10241 18415 26611 2059 10237 18412 26609 2058 10234 18413 26611 2058 10232 18411 26609 2059 10232 18410 26611 2057 10228 18408 26608 2055 10226 18408 26611 2056 10224 18406 26609 2057 10224 18405 26609 2056 10223 18404 26608 2053 10221 18403 26607 2057 10222 18402 26606 2056 10221 18400 26605 2057 10221 18401 26606 2057 10221 18400 26604 2062 10223 18400 26605 2061 10222 18399 26603 2061 10222 18401 26605 2062 10222 18401 26603 2064 10222 18400 26604 2062 10220 18400 26602 2059 10217 18399 26603 2059 10215 18397 26602 2055 10210 18393 26601 2051 10205 18393 26599 2044 10196 18390 26596 2041 10189 18387 26593 2032 10178 18381 26588 2021 10160 18377 26586 2014 10151 18373 26580 2009 10146 18372 26580 2002 10137 18369 26577 1993 10125 18365 26577 1986 10113 18361 26572 1977 10102 18357 26569 1967 10091 18355 26569 1956 10078 18353 26567 1951 10074 18353 26568 1947 10075 18354 26569 1952 10085 18362 26576 1966 10107 18370 26578 2000 10145 18380 26584 2049 10205 18390 26586 2117 10278 18400 26590 2188 10357 18406 26585 2266 10435 18409 26579 2339 10503 18408 26567 2399 10553 18399 26552 2450 10587 18384 26535 2488 10602 18359 26511 2512 10597 18333 26490 2509 10567 18305 26468 2485 10520 18279 26455 5000 2432 10454 18262 26447 2359 10375 18259 26454 2272 10292 18264 26465 2185 10222 18277 26485 2103 10159 18297 26504 2031 10111 18318 26527 1978 10081 18340 26547 1936 10062 18359 26565 1908 10054 18379 26582 1885 10050 18395 26594 1876 10055 18411 26609 1872 10066 18424 26617 1877 10083 18439 26632 1882 10100 18453 26639 1896 10124 18466 26647 1915 10157 18480 26657 1935 10188 18492 26668 1957 10216 18500 26674 1973 10235 18503 26677 1988 10250 18504 26680 1998 10258 18501 26677 2009 10265 18497 26679 2016 10266 18491 26676 2024 10268 18488 26678 2028 10269 18483 26674 2033 10268 18478 26672 2033 10264 18474 26668 2029 10258 18470 26665 2025 10252 18467 26662 2019 10243 18464 26660 2013 10235 18464 26660 2004 10226 18462 26659 2002 10225 18463 26663 2000 10224 18464 26666 2003 10230 18469 26673 2006 10236 18472 26677 2013 10246 18476 26682 2017 10254 18479 26683 2019 10259 18482 26687 6000 2020 10264 18485 26689 2016 10264 18488 26692 2010 10262 18495 26696 1997 10256 18500 26699 1986 10250 18506 26704 1970 10239 18509 26706 1955 10226 18517 26714 1934 10211 18522 26718 1914 10195 18526 26724 1891 10176 18529 26725 1865 10153 18533 26732 1836 10127 18534 26734 1809 10102 18535 26737 1778 10072 18533 26737 1750 10049 18537 26742 1729 10032 18541 26748 1709 10015 18541 26751 1692 9999 18544 26757 1671 9982 18546 26760 1658 9970 18547 26766 1649 9963 18548 26769 1644 9959 18550 26776 1638 9957 18551 26778 1643 9963 18553 26782 1649 9972 18555 26783 1657 9981 18556 26786 1670 9996 18559 26787 1687 10014 18558 26787 1708 10034 18561 26788 1726 10053 18561 26785 1750 10075 18561 26785 1774 10096 18559 26780 1800 10119 18559 26781 1823 10140 18557 26776 1849 10163 18555 26773 1874 10183 18552 26768 1896 10201 18550 26766 1919 10220 18547 26760 1939 10236 18542 26756 1959 10252 18540 26751 1974 10264 18537 26746 1990 10277 18534 26743 2002 10284 18529 26736 2013 10292 18529 26735 2021 10298 18526 26730 2030 10304 18524 26727 2034 10306 18521 26721 2037 10307 18519 26719 2041 10308 18515 26713 2044 10308 18510 26709 2047 10308 18509 26705 2044 10302 18504 26697 2049 10302 18501 26694 2053 10305 18499 26690 2061 10312 18500 26691 2066 10314 18496 26685 2072 10317 18492 26681 2075 10318 18488 26677 2079 10319 18484 26674 2088 10324 18481 26669 2094 10330 18477 26665 2103 10336 18476 26663 2111 10342 18473 26659 2128 10352 18471 26657 2136 10360 18468 26653 2148 10370 18468 26654 2155 10376 18466 26649 2166 10384 18466 26649 2173 10391 18465 26646 2179 10397 18465 26646 2183 10400 18464 26643 2190 10406 18463 26642 2194 10410 18463 26640 2194 10410 18461 26638 2199 10413 18462 26637 2200 10415 18460 26635 2202 10417 18462 26636 2200 10415 18461 26633 2201 10414 18461 26635 2198 10411 18460 26632 2196 10408 18460 26634 2191 10402 18458 26632 2190 10399 18457 26633 2184 10393 18456 26631 2177 10385 18455 26631 2173 10380 18454 26630 2167 10372 18451 26629 2163 10367 18451 26629 2157 10360 18450 26624 2153 10352 18447 26626 2145 10340 18442 26621 2143 10337 18440 26623 2141 10334 18440 26621 2140 10330 18438 26623 2136 10322 18436 26621 2129 10313 18431 26622 2125 10306 18428 26618 2120 10297 18423 26615 2117 10292 18422 26614 2112 10285 18418 26611 2112 10281 18415 26611 2108 10275 18411 26608 2107 10272 18410 26609 2104 10268 18407 26606 2106 10266 18405 26605 2105 10263 18403 26602 2102 10260 18401 26603 2102 10260 18399 26601 2101 10257 18397 26600 2100 10255 18397 26599 2096 10252 18395 26596 2099 10251 18393 26596 2096 10247 18390 26592 2097 10245 18391 26593 2095 10243 18389 26590 2096 10241 18388 26590 2093 10237 18386 26587 2091 10233 18386 26588 2090 10231 18384 26586 2090 10230 18383 26585 2091 10230 18384 26584 2090 10231 18384 26584 2097 10238 18386 26585 2102 10245 18387 26585 2114 10260 18393 26589 2124 10275 18397 26589 2142 10297 18402 26592 2160 10317 18404 26590 2175 10332 18405 26590 2190 10350 18405 26585 2214 10376 18407 26585 2233 10393 18406 26583 2244 10404 18404 26581 2256 10415 18403 26579 2263 10421 18401 26576 2268 10427 18405 26578 2265 10427 18408 26577 2261 10427 18412 26582 2252 10422 18415 26583 2240 10415 18422 26591 2222 10402 18426 26593 2206 10389 18431 26599 2185 10372 18434 26601 2163 10352 18435 26605 2145 10335 18436 26607 2125 10315 18434 26608 2109 10298 18434 26610 2092 10281 18432 26608 2082 10268 18429 26610 2070 10255 18426 26608 2060 10246 18426 26612 2054 10239 18425 26612 2048 10233 18426 26614 2040 10228 18428 26615 2031 10223 18429 26618 2028 10222 18432 26620 2022 10219 18435 26623 2019 10219 18440 26626 2014 10219 18443 26628 2016 10223 18447 26632 2015 10224 18450 26633 2018 10230 18455 26638 2019 10234 18457 26640 2025 10240 18460 26643 2028 10246 18463 26645 2030 10251 18465 26649 2034 10257 18467 26650 2036 10258 18466 26649 2042 10266 18469 26652 2047 10274 18470 26653 2055 10280 18470 26656 2056 10278 18467 26655 2056 10276 18465 26655 2055 10272 18461 26651 2055 10266 18456 26649 2052 10259 18451 26646 2048 10251 18445 26644 2047 10244 18440 26640 2042 10237 18434 26637 2038 10227 18431 26634 2031 10217 18425 26630 2030 10209 18420 26627 2024 10199 18415 26623 2018 10191 18413 26622 2013 10181 18408 26617 2010 10174 18404 26616 2004 10166 18400 26611 1999 10158 18397 26610 1995 10149 18393 26606 1992 10144 18389 26604 1988 10137 18387 26602 1982 10130 18384 26600 1981 10126 18381 26598 1977 10121 18378 26597 1976 10118 18378 26597 1973 10113 18375 26593 1973 10111 18373 26593 1971 10108 18371 26591 1969 10106 18371 26592 1968 10102 18369 26590 1969 10101 18367 26590 1967 10099 18367 26590 1964 10095 18366 26589 1965 10094 18365 26587 1964 10091 18363 26585 1960 10084 18362 26584 1960 10087 18363 26580 1964 10093 18364 26584 1965 10094 18363 26584 1966 10095 18365 26586 1963 10093 18364 26584 1962 10092 18364 26583 1960 10091 18365 26583 1957 10088 18365 26584 1957 10088 18365 26582 1957 10089 18365 26582 1959 10091 18368 26584 1957 10091 18369 26583 1960 10095 18371 26584 1960 10097 18372 26584 1961 10101 18377 26588 1960 10103 18378 26588 1962 10107 18381 26590 1962 10111 18384 26592 1962 10114 18388 26596 1964 10119 18389 26597 1966 10125 18392 26600 1969 10131 18397 26603 1969 10135 18399 26604 1974 10142 18402 26606 1976 10148 18405 26607 1981 10155 18410 26611 1983 10160 18412 26612 1988 10167 18414 26615 1992 10173 18418 26616 1995 10180 18420 26620 1999 10187 18423 26622 2005 10195 18426 26625 2010 10203 18431 26628 2013 10210 18433 26630 2021 10220 18438 26633 2024 10226 18440 26634 2029 10234 18445 26639 2030 10237 18447 26637 2033 10241 18448 26640 2037 10250 18451 26642 2042 10259 18455 26647 2047 10266 18458 26648 2050 10267 18459 26648 2050 10268 18460 26648 2048 10268 18460 26647 2052 10272 18462 26647 2052 10273 18462 26648 2054 10276 18465 26652 2055 10280 18467 26651 2059 10284 18469 26656 2059 10286 18470 26657 2060 10288 18472 26661 2061 10290 18472 26661 2062 10292 18472 26663 2062 10292 18473 26664 2060 10291 18473 26666 2062 10293 18474 26666 2061 10291 18473 26666 2061 10292 18475 26667 2059 10291 18474 26666 2062 10292 18475 26668 2060 10291 18475 26667 2060 10290 18476 26669 2059 10290 18475 26668 2061 10290 18474 26669 2061 10290 18474 26669 2060 10288 18474 26669 2062 10289 18473 26669 2061 10287 18471 26668 2061 10286 18472 26667 2058 10282 18470 26664 2060 10282 18469 26664 2057 10278 18467 26662 2056 10275 18467 26663 2055 10274 18465 26660 2056 10273 18463 26659 2054 10268 18461 26657 2055 10269 18460 26656 2062 10277 18461 26656 2064 10279 18460 26655 2063 10277 18459 26655 2060 10273 18455 26652 2060 10269 18453 26650 2054 10261 18449 26645 2050 10254 18448 26644 2046 10248 18444 26640 2043 10241 18441 26639 2038 10233 18438 26637 2033 10225 18435 26637 2030 10220 18432 26635 2028 10216 18430 26634 2025 10213 18429 26633 2021 10208 18427 26632 2022 10208 18427 26631 2020 10206 18426 26629 2019 10206 18427 26630 2018 10204 18425 26627 2019 10203 18423 26628 2017 10200 18422 26626 2017 10199 18422 26626 2017 10197 18420 26625 2019 10198 18418 26625 2019 10197 18419 26624 2018 10196 18417 26623 2021 10198 18416 26621 2021 10198 18415 26621 2023 10201 18417 26621 2024 10202 18416 26619 2029 10204 18416 26621 2029 10205 18415 26619 2030 10207 18416 26621 2033 10208 18415 26621 2036 10211 18415 26623 2035 10212 18417 26623 2030 10206 18416 26624 2031 10207 18416 26622 2032 10211 18417 26621 2032 10214 18420 26624 2029 10210 18420 26624 2025 10203 18419 26625 2015 10192 18416 26624 2006 10181 18416 26624 1995 10168 18413 26622 1986 10157 18409 26620 1975 10145 18406 26618 1964 10131 18403 26618 1954 10119 18399 26617 1943 10108 18397 26616 1933 10097 18396 26616 1919 10084 18395 26614 1915 10081 18397 26617 1914 10084 18400 26617 1926 10100 18408 26624 1950 10129 18415 26626 1998 10180 18422 26631 2063 10251 18430 26631 2142 10334 18434 26628 2222 10413 18435 26617 2304 10488 18431 26603 2381 10552 18421 26586 2440 10594 18404 26565 2488 10618 18380 26542 2521 10622 18350 26514 2538 10608 18321 26493 2523 10570 18296 26474 2483 10514 18278 26465 5000 2414 10442 18270 26465 2330 10360 18275 26478 2237 10280 18286 26492 2150 10211 18303 26513 2073 10154 18323 26531 2006 10110 18343 26550 1956 10079 18361 26567 1917 10059 18376 26581 1895 10056 18394 26597 1880 10057 18411 26608 1875 10065 18426 26623 1874 10077 18438 26632 1878 10094 18453 26645 1885 10113 18466 26650 1898 10135 18477 26657 1910 10155 18485 26662 1920 10173 18491 26667 1933 10188 18495 26669 1942 10197 18493 26670 1951 10203 18493 26671 1956 10204 18488 26668 1963 10207 18483 26669 1968 10207 18478 26666 1974 10211 18477 26669 1977 10213 18475 26667 1981 10217 18476 26667 1980 10217 18477 26667 1976 10216 18479 26669 1974 10216 18481 26671 1972 10214 18482 26673 1973 10216 18484 26676 1974 10218 18485 26677 1982 10224 18486 26681 1989 10231 18486 26681 1999 10243 18489 26687 2008 10254 18489 26688 2018 10266 18491 26691 2024 10273 18494 26692 2025 10278 18497 26695 6000 2023 10281 18500 26696 2016 10278 18502 26698 2006 10271 18507 26700 1988 10258 18510 26700 1971 10244 18514 26703 1949 10224 18514 26703 1923 10196 18516 26705 1898 10177 18521 26706 1876 10161 18525 26713 1852 10140 18527 26716 1825 10115 18530 26723 1794 10088 18532 26723 1769 10064 18533 26726 1744 10041 18533 26728 1718 10016 18533 26731 1698 9996 18533 26736 1681 9979 18531 26738 1669 9966 18532 26745 1654 9952 18533 26747 1646 9945 18532 26752 1642 9942 18532 26752 1642 9941 18534 26758 1641 9941 18533 26758 1650 9948 18534 26761 1660 9958 18533 26759 1670 9968 18532 26758 1686 9983 18532 26757 1704 10000 18529 26754 1726 10021 18530 26753 1746 10039 18529 26748 1770 10060 18526 26746 1794 10080 18521 26738 1820 10100 18519 26737 1843 10120 18514 26730 1869 10141 18510 26726 1893 10160 18505 26720 1916 10178 18501 26716 1939 10197 18497 26710 1960 10212 18491 26704 1982 10229 18490 26698 1999 10241 18486 26690 2018 10256 18482 26685 2033 10265 18477 26677 2048 10274 18473 26675 2059 10282 18469 26667 2069 10287 18464 26660 2080 10298 18463 26655 2091 10307 18461 26654 2105 10316 18460 26650 2109 10319 18457 26645 2115 10323 18455 26643 2117 10323 18453 26636 2125 10328 18451 26632 2128 10329 18447 26626 2136 10333 18446 26624 2140 10336 18443 26619 2150 10342 18442 26616 2156 10347 18442 26613 2160 10352 18441 26613 2165 10357 18441 26611 2171 10363 18441 26611 2177 10370 18443 26610 2178 10372 18444 26609 2185 10379 18445 26610 2188 10383 18445 26608 2194 10390 18448 26611 2195 10392 18449 26610 2200 10397 18450 26612 2201 10400 18451 26612 2202 10403 18453 26616 2201 10403 18454 26616 2203 10407 18454 26618 2203 10409 18456 26618 2200 10407 18456 26618 2202 10408 18458 26620 2201 10408 18456 26619 2203 10409 18458 26622 2201 10406 18458 26621 2202 10405 18457 26623 2200 10403 18456 26621 2198 10401 18455 26623 2194 10395 18453 26622 2192 10392 18452 26621 2185 10383 18449 26619 2179 10377 18446 26618 2181 10379 18447 26619 2180 10374 18444 26619 2178 10370 18444 26620 2172 10362 18440 26614 2169 10356 18436 26615 2164 10349 18432 26611 2161 10343 18429 26612 2155 10336 18424 26607 2155 10331 18421 26606 2151 10325 18418 26604 2146 10319 18415 26603 2146 10316 18412 26601 2143 10311 18408 26599 2143 10309 18408 26598 2140 10305 18405 26594 2141 10303 18403 26594 2139 10299 18400 26590 2140 10297 18399 26592 2137 10294 18397 26589 2139 10293 18396 26589 2138 10290 18395 26586 2135 10287 18394 26586 2135 10286 18393 26584 2135 10283 18392 26583 2135 10282 18393 26582 2132 10279 18391 26580 2135 10280 18391 26581 2133 10276 18389 26578 2133 10276 18390 26581 2130 10274 18389 26580 2132 10273 18388 26580 2130 10271 18388 26577 2128 10269 18387 26578 2126 10267 18385 26575 2125 10264 18382 26575 2124 10262 18382 26574 2117 10256 18380 26569 2119 10257 18379 26571 2124 10263 18381 26572 2134 10275 18385 26577 2143 10286 18386 26576 2156 10301 18388 26577 2170 10316 18389 26576 2186 10332 18391 26578 2200 10348 18391 26575 2219 10364 18390 26574 2236 10379 18389 26570 2247 10389 18386 26568 2261 10402 18386 26567 2272 10412 18385 26566 2280 10422 18389 26570 2279 10424 18393 26570 2275 10425 18397 26575 2267 10421 18402 26577 2254 10412 18407 26584 2235 10399 18411 26586 2218 10385 18414 26591 2197 10367 18417 26592 2173 10347 18417 26595 2154 10329 18419 26597 2132 10308 18417 26598 2113 10291 18419 26601 2094 10273 18419 26601 2079 10259 18418 26605 2063 10245 18418 26605 2049 10234 18420 26610 2040 10225 18420 26611 2033 10220 18422 26615 2025 10216 18425 26618 2018 10213 18428 26622 2016 10213 18432 26625 2012 10212 18435 26631 2010 10214 18441 26635 2006 10215 18445 26636 2005 10215 18448 26642 2001 10211 18449 26642 2004 10219 18455 26648 2007 10228 18459 26651 2013 10235 18463 26654 2015 10238 18464 26657 2016 10241 18464 26660 2020 10246 18465 26659 2023 10248 18465 26660 2028 10252 18466 26661 2030 10254 18465 26658 2038 10258 18463 26658 2041 10259 18460 26655 2046 10260 18459 26655 2049 10261 18455 26652 2053 10260 18451 26649 2054 10258 18447 26646 2054 10254 18442 26643 2057 10252 18437 26639 2056 10247 18430 26634 2054 10241 18425 26631 2052 10234 18419 26626 2053 10228 18415 26623 2048 10219 18409 26618 2044 10213 18406 26618 2042 10205 18402 26613 2040 10198 18397 26612 2035 10189 18393 26607 2030 10180 18390 26607 2027 10172 18385 26604 2023 10165 18381 26602 2016 10158 18378 26601 2010 10150 18375 26598 2009 10145 18373 26597 2004 10140 18370 26596 2000 10137 18370 26597 1996 10132 18370 26594 1994 10128 18368 26595 1989 10124 18366 26594 1983 10114 18365 26594 1980 10113 18365 26592 1983 10119 18368 26594 1983 10120 18369 26597 1981 10118 18369 26599 1981 10117 18369 26598 1977 10115 18368 26598 1975 10114 18371 26600 1972 10110 18371 26597 1971 10109 18370 26598 1969 10108 18369 26597 1969 10107 18371 26599 1968 10106 18371 26597 1970 10108 18370 26596 1970 10109 18371 26595 1968 10109 18371 26595 1970 10111 18371 26593 1970 10113 18370 26593 1972 10116 18373 26594 1972 10117 18374 26593 1976 10121 18375 26594 1978 10124 18376 26593 1981 10128 18379 26596 1985 10131 18379 26596 1989 10137 18380 26598 1992 10142 18382 26598 1993 10145 18384 26599 1996 10150 18385 26599 1999 10154 18386 26600 2000 10160 18390 26602 2000 10162 18392 26602 2005 10168 18395 26605 2006 10172 18397 26605 2008 10177 18402 26608 2010 10181 18404 26609 2014 10187 18406 26612 2016 10192 18410 26613 2017 10196 18412 26618 2018 10197 18414 26618 2018 10199 18416 26619 2024 10209 18421 26623 2028 10219 18426 26625 2037 10228 18430 26631 2038 10233 18432 26633 2041 10238 18437 26637 2043 10243 18439 26636 2047 10249 18441 26639 2049 10252 18443 26639 2051 10255 18443 26640 2055 10259 18444 26639 2058 10263 18444 26640 2059 10267 18446 26641 2060 10269 18447 26642 2066 10275 18450 26644 2066 10276 18450 26644 2067 10279 18452 26647 2068 10280 18454 26645 2070 10283 18455 26649 2068 10283 18457 26648 2066 10283 18459 26652 2067 10285 18460 26652 2067 10286 18462 26654 2066 10287 18464 26655 2064 10286 18465 26657 2067 10288 18466 26657 2065 10287 18465 26658 2065 10288 18467 26659 2064 10287 18466 26657 2068 10290 18466 26660 2066 10289 18467 26658 2065 10290 18468 26660 2066 10290 18467 26659 2067 10290 18467 26659 2065 10289 18468 26658 2062 10287 18467 26658 2064 10287 18467 26658 2061 10283 18464 26656 2057 10276 18463 26656 2055 10274 18461 26652 2061 10280 18461 26654 2063 10281 18460 26654 2065 10283 18460 26656 2068 10285 18458 26654 2071 10286 18457 26653 2071 10285 18456 26652 2070 10283 18455 26652 2072 10282 18453 26651 2068 10277 18451 26650 2065 10273 18451 26649 2060 10267 18448 26646 2060 10264 18446 26645 2055 10258 18443 26643 2050 10252 18442 26643 2047 10246 18439 26640 2044 10241 18436 26639 2040 10235 18434 26636 2036 10230 18432 26636 2034 10226 18430 26634 2033 10224 18427 26633 2032 10222 18428 26633 2029 10220 18426 26632 2031 10220 18426 26632 2029 10218 18425 26630 2028 10217 18426 26632 2027 10215 18425 26630 2027 10216 18425 26631 2027 10216 18425 26630 2026 10216 18426 26632 2027 10218 18426 26631 2029 10220 18426 26631 2030 10222 18427 26631 2030 10222 18426 26631 2036 10226 18427 26631 2037 10226 18425 26630 2038 10228 18426 26630 2038 10224 18425 26625 2039 10224 18423 26625 2042 10228 18423 26625 2046 10235 18425 26628 2050 10238 18426 26628 2051 10238 18425 26629 2047 10235 18425 26629 2042 10231 18424 26629 2040 10227 18422 26627 2034 10219 18419 26625 2029 10211 18417 26624 2021 10199 18412 26618 2016 10188 18408 26616 2007 10176 18404 26611 1998 10164 18402 26611 1988 10151 18397 26608 1981 10140 18393 26606 1972 10129 18390 26603 1960 10114 18387 26602 1951 10102 18384 26598 1941 10092 18382 26597 1935 10088 18385 26598 1932 10088 18387 26598 1943 10103 18392 26602 1966 10131 18399 26604 2010 10183 18409 26610 2068 10247 18415 26609 2153 10333 18421 26606 2237 10417 18423 26597 2318 10493 18421 26589 2388 10554 18413 26573 2451 10601 18396 26554 2504 10631 18374 26531 2533 10634 18346 26507 2547 10619 18317 26484 2538 10584 18287 26465 2499 10530 18271 26458 5000 2432 10459 18265 26458 2347 10376 18267 26468 2255 10292 18276 26482 2170 10227 18297 26506 2095 10175 18319 26525 2037 10138 18339 26545 1986 10109 18357 26562 1942 10086 18373 26576 1915 10075 18388 26591 1896 10071 18401 26602 1886 10074 18416 26615 1882 10083 18429 26622 1887 10099 18442 26631 1896 10119 18454 26637 1909 10142 18466 26647 1923 10165 18475 26652 1940 10187 18482 26659 1953 10203 18486 26662 1962 10214 18487 26664 1973 10222 18485 26664 1979 10224 18479 26663 1985 10225 18477 26664 1988 10224 18473 26662 1992 10225 18470 26664 1992 10224 18468 26661 1992 10222 18468 26662 1987 10217 18467 26659 1983 10213 18467 26658 1976 10205 18467 26656 1969 10197 18467 26655 1967 10193 18466 26655 1965 10190 18463 26656 1968 10192 18465 26659 1970 10195 18465 26660 1978 10203 18467 26665 1984 10211 18468 26667 1993 10221 18472 26672 1998 10228 18473 26673 2005 10235 18475 26675 6000 2005 10238 18477 26675 1998 10232 18477 26676 1992 10229 18481 26675 1985 10228 18485 26677 1975 10223 18490 26682 1958 10212 18494 26685 1942 10200 18498 26690 1921 10183 18500 26693 1901 10166 18506 26700 1875 10145 18510 26703 1853 10126 18513 26707 1829 10104 18515 26709 1803 10081 18518 26714 1777 10058 18520 26716 1756 10040 18522 26721 1737 10024 18525 26725 1714 10007 18526 26728 1700 9996 18530 26735 1688 9987 18531 26737 1682 9984 18535 26743 1675 9981 18538 26745 1676 9984 18540 26748 1681 9991 18541 26748 1689 10000 18543 26753 1696 10010 18543 26752 1711 10024 18543 26753 1728 10039 18543 26750 1742 10054 18541 26748 1764 10074 18541 26746 1787 10093 18537 26741 1812 10116 18538 26739 1835 10136 18536 26733 1861 10157 18532 26731 1886 10176 18527 26724 1912 10196 18523 26722 1935 10213 18517 26715 1960 10230 18512 26711 1981 10247 18508 26704 1998 10261 18503 26700 2017 10275 18498 26694 2030 10280 18489 26685 2048 10294 18488 26684 2065 10308 18485 26677 2081 10318 18481 26676 2089 10322 18476 26671 2095 10325 18473 26669 2101 10326 18470 26664 2104 10328 18468 26660 2104 10327 18466 26657 2104 10325 18463 26654 2110 10326 18461 26650 2109 10324 18458 26646 2111 10326 18459 26644 2112 10325 18457 26639 2119 10328 18455 26638 2122 10329 18453 26633 2127 10333 18452 26634 2132 10336 18450 26630 2141 10343 18449 26630 2147 10348 18449 26627 2151 10352 18449 26627 2157 10357 18448 26625 2164 10364 18446 26624 2172 10371 18446 26623 2177 10375 18444 26619 2186 10381 18444 26619 2192 10387 18442 26616 2200 10394 18444 26617 2203 10397 18443 26615 2212 10404 18443 26615 2217 10409 18443 26613 2221 10413 18443 26614 2223 10414 18442 26612 2229 10418 18441 26613 2232 10422 18442 26613 2230 10421 18441 26612 2233 10423 18442 26614 2234 10424 18441 26612 2234 10422 18442 26613 2231 10421 18442 26610 2235 10427 18443 26613 2237 10428 18443 26614 2235 10426 18444 26617 2229 10420 18443 26615 2227 10417 18443 26614 2222 10411 18442 26613 2213 10401 18440 26611 2211 10396 18438 26610 2206 10388 18433 26607 2203 10383 18433 26607 2197 10375 18430 26603 2194 10370 18426 26603 2188 10362 18423 26599 2183 10355 18421 26601 2177 10346 18417 26597 2174 10341 18413 26595 2170 10334 18409 26592 2164 10326 18406 26590 2162 10321 18403 26589 2158 10315 18399 26586 2156 10311 18399 26586 2151 10305 18397 26583 2150 10301 18395 26583 2146 10296 18392 26580 2145 10293 18393 26582 2141 10289 18390 26579 2142 10287 18389 26580 2139 10283 18388 26577 2135 10279 18387 26578 2133 10276 18385 26577 2131 10271 18382 26576 2130 10270 18383 26576 2126 10267 18382 26574 2127 10266 18381 26574 2124 10263 18378 26571 2124 10261 18380 26575 2118 10256 18378 26571 2115 10251 18376 26569 2115 10252 18377 26569 2116 10256 18377 26573 2119 10259 18377 26571 2122 10261 18376 26570 2126 10266 18377 26572 2129 10272 18379 26572 2140 10287 18383 26575 2152 10301 18385 26575 2168 10319 18390 26577 2181 10334 18391 26574 2200 10352 18391 26573 2219 10367 18388 26568 2236 10380 18386 26568 2248 10389 18382 26563 2264 10400 18378 26561 2274 10409 18378 26560 2276 10412 18378 26560 2278 10415 18381 26563 2274 10416 18384 26564 2267 10415 18392 26571 2253 10407 18398 26574 2239 10399 18404 26581 2221 10385 18408 26583 2202 10370 18413 26590 2180 10352 18415 26592 2163 10335 18416 26595 2145 10317 18416 26596 2127 10300 18415 26596 2116 10287 18415 26597 2103 10275 18413 26597 2093 10267 18415 26600 2084 10260 18416 26599 2078 10255 18417 26604 2069 10250 18419 26604 2060 10247 18423 26610 2055 10245 18427 26612 2048 10242 18432 26614 2038 10235 18435 26615 2033 10234 18439 26618 2036 10243 18444 26621 2036 10246 18447 26624 2038 10249 18451 26630 2038 10251 18452 26629 2041 10255 18455 26634 2041 10258 18456 26635 2044 10262 18460 26641 2047 10266 18461 26642 2051 10270 18461 26644 2053 10271 18462 26645 2054 10272 18461 26646 2059 10275 18460 26646 2060 10274 18458 26645 2061 10275 18457 26645 2061 10272 18453 26641 2065 10270 18450 26640 2061 10264 18445 26636 2059 10258 18441 26635 2058 10252 18435 26630 2057 10245 18429 26626 2053 10236 18423 26621 2048 10227 18418 26617 2048 10219 18413 26613 2043 10210 18406 26609 2037 10202 18403 26605 2033 10192 18398 26601 2032 10185 18394 26598 2025 10177 18388 26593 2020 10170 18386 26593 2017 10160 18381 26589 2015 10154 18376 26587 2010 10147 18372 26583 2006 10140 18370 26583 2005 10135 18367 26581 2003 10131 18365 26580 1999 10127 18363 26579 1994 10114 18358 26574 1995 10112 18354 26572 1995 10114 18352 26570 1997 10114 18352 26572 2000 10112 18351 26568 2001 10111 18348 26569 1999 10109 18346 26567 1997 10106 18346 26568 1999 10104 18344 26565 1999 10104 18342 26563 1997 10103 18340 26562 1996 10100 18339 26561 1999 10101 18339 26559 1997 10100 18337 26557 1996 10101 18339 26558 1997 10099 18340 26555 1997 10099 18340 26557 1994 10098 18339 26554 1992 10098 18341 26557 1992 10096 18341 26556 1992 10097 18341 26556 1989 10097 18342 26555 1987 10095 18343 26556 1989 10096 18344 26555 1987 10097 18344 26555 1985 10100 18348 26557 1985 10100 18350 26557 1988 10103 18352 26560 1987 10106 18354 26560 1987 10111 18360 26566 1988 10114 18362 26566 1991 10120 18366 26569 1991 10125 18370 26571 1990 10129 18375 26574 1994 10135 18378 26576 1996 10141 18380 26579 1998 10148 18386 26582 2000 10153 18390 26582 2005 10158 18393 26586 2004 10159 18395 26585 2010 10172 18401 26592 2016 10183 18406 26595 2023 10193 18411 26600 2026 10199 18414 26603 2027 10205 18418 26609 2032 10213 18423 26612 2035 10220 18427 26615 2038 10228 18432 26620 2041 10234 18436 26621 2050 10243 18440 26625 2052 10250 18442 26626 2056 10259 18448 26630 2061 10267 18451 26631 2066 10275 18454 26635 2067 10281 18458 26637 2068 10285 18461 26641 2073 10291 18463 26643 2074 10295 18465 26645 2074 10299 18468 26646 2074 10300 18469 26646 2080 10305 18471 26649 2079 10306 18472 26649 2079 10309 18476 26654 2080 10310 18477 26654 2081 10313 18479 26658 2079 10313 18481 26658 2076 10313 18483 26661 2078 10313 18484 26661 2078 10314 18484 26663 2076 10314 18485 26664 2074 10313 18485 26664 2078 10315 18485 26665 2076 10313 18484 26665 2076 10314 18485 26666 2076 10312 18483 26663 2079 10312 18482 26663 2076 10307 18480 26661 2071 10299 18477 26661 2070 10296 18476 26658 2070 10299 18476 26659 2070 10299 18476 26661 2067 10295 18474 26662 2069 10294 18472 26660 2066 10290 18469 26658 2066 10291 18470 26659 2066 10291 18469 26656 2070 10293 18468 26657 2069 10291 18466 26654 2070 10291 18464 26654 2072 10289 18462 26651 2072 10287 18459 26649 2070 10283 18457 26646 2067 10278 18454 26645 2068 10276 18451 26643 2063 10270 18448 26641 2059 10264 18446 26639 2055 10257 18443 26636 2054 10253 18440 26634 2048 10246 18437 26631 2045 10242 18437 26631 2043 10238 18434 26629 2044 10237 18432 26629 2043 10235 18432 26627 2043 10235 18431 26627 2045 10235 18429 26626 2045 10234 18428 26625 2044 10234 18428 26625 2043 10232 18426 26623 2047 10233 18425 26623 2046 10232 18423 26620 2046 10234 18424 26622 2048 10234 18422 26621 2051 10235 18422 26623 2050 10235 18422 26621 2049 10234 18421 26623 2051 10231 18420 26620 2048 10228 18418 26617 2050 10231 18418 26617 2053 10234 18417 26616 2060 10237 18415 26617 2059 10235 18412 26615 2059 10234 18413 26617 2059 10232 18412 26614 2057 10230 18411 26616 2052 10224 18410 26614 2046 10218 18409 26615 2042 10211 18406 26611 2036 10204 18403 26609 2028 10194 18399 26605 2019 10182 18395 26602 2013 10171 18389 26598 2004 10158 18383 26595 1995 10146 18380 26593 1986 10132 18375 26586 1979 10120 18370 26584 1971 10108 18364 26578 1962 10097 18362 26577 1953 10084 18359 26573 1947 10078 18358 26572 1941 10074 18359 26573 1938 10074 18362 26574 1946 10086 18366 26575 1964 10108 18372 26579 1999 10150 18383 26583 2047 10206 18391 26583 2120 10282 18399 26584 2197 10363 18403 26578 2274 10440 18408 26575 2340 10502 18405 26563 2401 10552 18395 26549 2454 10586 18378 26528 2489 10597 18354 26507 2503 10583 18325 26484 2501 10552 18293 26461 2468 10494 18267 26446 5000 2409 10424 18255 26441 2337 10351 18255 26451 2253 10275 18262 26464 2169 10205 18281 26486 2088 10145 18301 26506 2025 10105 18324 26527 1971 10077 18345 26545 1929 10058 18364 26563 1900 10048 18380 26578 1882 10047 18395 26591 1872 10052 18410 26604 1867 10061 18422 26613 1873 10081 18437 26624 1884 10103 18450 26632 1901 10132 18466 26644 1918 10159 18478 26650 1937 10187 18487 26659 1955 10210 18493 26663 1971 10228 18495 26669 1982 10240 18494 26669 1993 10247 18490 26670 1999 10249 18486 26669 2001 10248 18482 26668 2007 10250 18479 26666 2008 10246 18473 26662 2007 10240 18472 26659 2002 10231 18466 26652 1997 10221 18462 26649 1989 10208 18457 26643 1981 10197 18453 26642 1974 10186 18449 26640 1971 10181 18446 26641 1967 10177 18447 26643 1964 10177 18448 26646 1968 10183 18452 26651 1972 10189 18454 26656 1979 10199 18460 26661 1981 10202 18462 26658 1987 10208 18463 26661 6000 1992 10217 18464 26662 1997 10225 18469 26668 1996 10228 18471 26669 1994 10228 18475 26672 1986 10224 18479 26674 1974 10216 18483 26679 1961 10208 18487 26682 1947 10198 18491 26685 1930 10185 18496 26690 1907 10167 18500 26691 1887 10149 18503 26696 1863 10128 18503 26696 1839 10107 18507 26703 1810 10083 18509 26705 1786 10063 18512 26709 1764 10044 18515 26711 1742 10026 18520 26719 1721 10011 18523 26722 1709 10002 18526 26727 1701 9997 18530 26731 1691 9992 18533 26734 1691 9995 18537 26739 1695 10000 18537 26741 1703 10010 18541 26747 1709 10019 18543 26748 1723 10033 18543 26751 1738 10048 18542 26748 1755 10064 18543 26750 1772 10081 18542 26747 1795 10101 18540 26746 1817 10120 18539 26742 1836 10137 18536 26738 1860 10156 18535 26736 1881 10173 18531 26731 1905 10193 18530 26731 1926 10209 18527 26725 1946 10223 18522 26723 1962 10233 18514 26716 1982 10248 18514 26717 2000 10270 18513 26713 2017 10282 18511 26710 2029 10291 18508 26706 2036 10296 18505 26702 2045 10302 18503 26699 2049 10302 18498 26694 2055 10305 18498 26692 2057 10305 18495 26685 2061 10307 18492 26684 2063 10307 18489 26679 2065 10308 18489 26678 2067 10309 18487 26675 2069 10310 18486 26674 2068 10309 18487 26674 2063 10307 18490 26676 2064 10312 18496 26679 2064 10316 18499 26681 2070 10325 18504 26683 2076 10331 18505 26680 2089 10341 18503 26679 2097 10348 18501 26675 2106 10357 18499 26674 2119 10362 18496 26670 2133 10371 18491 26667 2145 10376 18486 26663 2155 10381 18479 26659 2167 10387 18473 26654 2180 10394 18467 26651 2191 10402 18465 26647 2198 10405 18460 26642 2209 10411 18457 26639 2216 10416 18452 26634 2223 10422 18450 26633 2225 10422 18447 26629 2232 10426 18446 26627 2235 10427 18444 26623 2232 10421 18441 26620 2230 10420 18440 26614 2235 10425 18440 26613 2236 10426 18442 26614 2231 10420 18440 26612 2230 10418 18439 26612 2225 10412 18435 26608 2222 10408 18435 26609 2215 10401 18433 26605 2212 10396 18431 26605 2208 10389 18427 26602 2204 10382 18424 26602 2198 10374 18419 26599 2196 10369 18415 26598 2193 10363 18413 26596 2186 10355 18409 26593 2184 10350 18407 26592 2180 10342 18402 26588 2179 10337 18401 26588 2175 10330 18397 26583 2175 10326 18394 26582 2172 10320 18390 26577 2171 10315 18388 26578 2167 10310 18384 26575 2168 10305 18381 26573 2165 10300 18378 26569 2160 10294 18375 26567 2160 10291 18373 26564 2159 10286 18368 26561 2159 10285 18368 26560 2156 10281 18366 26556 2156 10279 18364 26555 2154 10276 18361 26551 2153 10273 18362 26553 2150 10270 18361 26551 2151 10268 18359 26551 2148 10265 18358 26548 2144 10261 18357 26549 2142 10258 18356 26545 2136 10250 18353 26541 2136 10251 18357 26544 2135 10254 18359 26542 2136 10255 18358 26545 2134 10252 18357 26544 2134 10251 18359 26548 2130 10251 18360 26547 2134 10255 18360 26549 2139 10261 18363 26549 2145 10271 18366 26553 2157 10287 18370 26552 2173 10306 18372 26553 2193 10326 18375 26553 2210 10343 18376 26550 2231 10362 18376 26549 2251 10378 18371 26543 2271 10394 18371 26544 2282 10403 18367 26540 2294 10413 18366 26540 2300 10419 18366 26540 2299 10422 18370 26545 2292 10420 18374 26547 2284 10417 18379 26553 2272 10412 18386 26558 2253 10399 18391 26562 2236 10389 18398 26569 2216 10374 18402 26572 2198 10360 18409 26580 2177 10344 18412 26583 2160 10330 18415 26589 2143 10315 18417 26590 2126 10301 18419 26595 2112 10288 18419 26595 2101 10278 18418 26598 2092 10269 18420 26599 2081 10261 18419 26600 2079 10257 18419 26602 2072 10251 18418 26601 2064 10243 18419 26602 2060 10241 18420 26599 2061 10247 18424 26606 2060 10249 18427 26608 2057 10251 18432 26614 2058 10254 18436 26615 2056 10255 18439 26618 2056 10258 18442 26620 2057 10262 18444 26623 2066 10271 18447 26627 2068 10276 18448 26629 2074 10284 18452 26634 2079 10289 18454 26633 2087 10295 18455 26638 2089 10297 18455 26637 2091 10299 18455 26640 2092 10298 18453 26638 2093 10295 18451 26638 2089 10290 18449 26635 2083 10283 18445 26634 2083 10278 18442 26631 2076 10268 18436 26628 2072 10260 18434 26625 2066 10250 18429 26619 2063 10241 18423 26616 2055 10229 18416 26610 2047 10218 18412 26609 2042 10208 18406 26603 2037 10199 18400 26600 2030 10189 18394 26594 2024 10178 18389 26591 2024 10170 18382 26586 2019 10162 18375 26583 2015 10156 18371 26579 2012 10148 18366 26575 2013 10144 18362 26573 2009 10138 18356 26568 2007 10134 18354 26570 2005 10122 18348 26563 2003 10119 18345 26560 2004 10122 18344 26560 2005 10122 18344 26562 2008 10121 18342 26559 2007 10119 18339 26557 2005 10115 18338 26556 2003 10109 18335 26554 2005 10107 18333 26554 2003 10104 18328 26550 2003 10103 18328 26552 2004 10101 18327 26548 2005 10101 18326 26550 2003 10101 18324 26548 2001 10099 18325 26550 2002 10098 18325 26549 2000 10098 18325 26550 1998 10098 18326 26550 1995 10095 18327 26550 1996 10095 18329 26551 1993 10094 18329 26550 1991 10095 18333 26554 1991 10094 18335 26552 1992 10095 18337 26555 1990 10096 18338 26554 1988 10097 18342 26559 1990 10098 18343 26559 1991 10102 18346 26561 1990 10105 18349 26563 1989 10107 18352 26565 1994 10112 18355 26567 1993 10116 18357 26569 1994 10122 18362 26573 1996 10125 18365 26574 2001 10132 18368 26579 2000 10137 18371 26580 2001 10143 18377 26585 2004 10148 18380 26587 2006 10153 18383 26589 2004 10153 18386 26591 2006 10163 18390 26595 2015 10178 18398 26599 2019 10188 18403 26603 2023 10198 18409 26608 2026 10205 18414 26608 2032 10213 18419 26613 2033 10220 18423 26614 2037 10229 18429 26620 2043 10237 18432 26621 2049 10246 18437 26625 2053 10254 18441 26628 2055 10261 18444 26632 2063 10271 18449 26636 2065 10278 18453 26639 2067 10286 18459 26644 2068 10290 18463 26646 2074 10298 18467 26650 2072 10301 18470 26652 2072 10306 18475 26657 2074 10308 18478 26659 2076 10312 18481 26663 2074 10313 18484 26665 2072 10314 18487 26668 2075 10316 18488 26669 2073 10317 18489 26671 2072 10319 18491 26673 2070 10317 18491 26674 2073 10318 18491 26676 2070 10317 18491 26676 2069 10318 18493 26679 2069 10315 18492 26676 2071 10315 18491 26677 2069 10314 18491 26675 2068 10313 18491 26676 2070 10312 18490 26675 2071 10312 18488 26675 2070 10311 18487 26674 2066 10304 18484 26672 2069 10304 18482 26669 2068 10306 18481 26668 2070 10309 18483 26670 2071 10307 18482 26667 2071 10304 18479 26669 2067 10299 18477 26666 2064 10296 18476 26667 2066 10296 18474 26665 2069 10297 18472 26664 2070 10298 18471 26663 2071 10297 18469 26661 2078 10301 18467 26660 2076 10298 18465 26657 2075 10298 18465 26657 2074 10294 18463 26653 2074 10291 18461 26654 2068 10284 18459 26651 2062 10279 18458 26652 2059 10274 18456 26649 2055 10268 18454 26648 2049 10262 18454 26647 2042 10255 18452 26646 2040 10252 18451 26646 2035 10247 18449 26646 2033 10244 18450 26647 2030 10241 18449 26646 2031 10240 18448 26648 2029 10236 18447 26647 2027 10234 18448 26648 2025 10231 18447 26647 2025 10230 18446 26647 2023 10227 18446 26646 2021 10225 18444 26646 2022 10225 18442 26645 2023 10223 18440 26644 2023 10223 18440 26643 2022 10222 18438 26641 2025 10221 18436 26641 2021 10215 18433 26639 2024 10220 18433 26640 2027 10225 18434 26639 2031 10228 18434 26640 2031 10227 18433 26640 2029 10224 18432 26639 2030 10222 18430 26637 2029 10220 18428 26635 2028 10218 18427 26634 2025 10214 18425 26631 2026 10212 18424 26631 2021 10207 18422 26629 2017 10202 18422 26630 2011 10193 18420 26626 2006 10185 18417 26627 1997 10174 18414 26624 1987 10161 18411 26624 1977 10147 18406 26621 1969 10136 18402 26618 1960 10124 18399 26616 1948 10110 18395 26613 1941 10099 18391 26611 1931 10088 18388 26609 1923 10079 18389 26610 1911 10069 18388 26607 1905 10066 18389 26610 1903 10069 18394 26611 1910 10083 18401 26617 1929 10109 18409 26620 1970 10154 18417 26625 2026 10219 18427 26628 2098 10297 18433 26626 2179 10378 18437 26619 2259 10454 18435 26609 2336 10523 18431 26596 2397 10569 18418 26577 2447 10597 18396 26556 2484 10605 18366 26529 2499 10587 18334 26507 2489 10554 18307 26486 2462 10506 18288 26476 5000 2402 10440 18276 26475 2322 10357 18277 26486 2231 10279 18288 26499 2141 10207 18305 26519 2062 10148 18327 26540 1992 10103 18348 26559 1941 10074 18367 26579 1902 10056 18384 26595 1876 10048 18403 26613 1856 10046 18420 26626 1849 10054 18437 26641 1848 10068 18454 26651 1852 10085 18470 26663 1861 10107 18485 26671 1874 10131 18496 26680 1889 10156 18508 26687 1902 10176 18515 26692 1918 10197 18520 26697 1930 10209 18520 26697 1942 10219 18520 26700 1950 10223 18516 26698 1957 10226 18511 26699 1963 10227 18507 26696 1967 10228 18504 26698 1970 10229 18501 26694 1972 10228 18499 26693 1971 10226 18499 26691 1965 10222 18499 26690 1964 10219 18500 26691 1960 10215 18498 26690 1960 10213 18499 26694 1959 10212 18498 26693 1963 10215 18498 26697 1967 10220 18499 26698 1975 10228 18502 26705 1980 10235 18503 26703 1987 10242 18504 26704 1995 10254 18507 26707 2000 10265 18512 26711 6000 2005 10272 18516 26714 2000 10270 18517 26714 1993 10267 18522 26717 1980 10258 18525 26714 1966 10247 18526 26718 1950 10230 18525 26716 1932 10212 18528 26721 1909 10192 18529 26721 1888 10173 18531 26724 1864 10151 18532 26726 1836 10125 18533 26730 1808 10101 18535 26731 1782 10076 18534 26733 1758 10053 18536 26736 1729 10027 18537 26737 1707 10006 18538 26743 1687 9988 18537 26743 1672 9974 18539 26751 1654 9959 18540 26754 1645 9952 18541 26758 1639 9947 18541 26760 1635 9944 18542 26765 1633 9944 18543 26766 1637 9950 18542 26767 1646 9959 18544 26768 1651 9968 18545 26767 1665 9983 18547 26769 1682 9999 18546 26767 1702 10020 18548 26769 1721 10038 18549 26768 1746 10062 18549 26767 1771 10084 18548 26763 1796 10107 18547 26763 1820 10129 18544 26758 1846 10150 18541 26752 1868 10166 18535 26747 1891 10186 18534 26742 1919 10212 18533 26742 1941 10231 18527 26737 1963 10247 18525 26735 1979 10259 18521 26727 1994 10268 18516 26722 2006 10275 18511 26714 2018 10280 18507 26710 2027 10288 18503 26702 2036 10292 18500 26697 2043 10297 18497 26691 2048 10299 18494 26686 2058 10305 18492 26682 2063 10306 18487 26676 2069 10311 18487 26673 2074 10313 18483 26667 2082 10317 18481 26664 2086 10319 18478 26659 2090 10322 18476 26657 2099 10325 18473 26653 2106 10330 18471 26650 2113 10335 18469 26646 2117 10338 18467 26643 2128 10345 18465 26640 2133 10350 18462 26637 2142 10358 18463 26636 2148 10363 18461 26632 2158 10370 18459 26633 2163 10375 18457 26630 2170 10381 18457 26633 2173 10384 18455 26630 2181 10390 18455 26630 2185 10395 18455 26628 2186 10398 18455 26628 2190 10401 18456 26628 2192 10404 18456 26628 2196 10409 18460 26630 2193 10405 18460 26627 2194 10407 18460 26630 2197 10413 18461 26630 2201 10418 18465 26636 2199 10416 18466 26637 2199 10415 18467 26639 2194 10411 18467 26638 2187 10404 18466 26640 2183 10399 18466 26639 2179 10394 18464 26638 2176 10389 18464 26638 2169 10381 18461 26636 2168 10378 18459 26637 2163 10371 18456 26635 2161 10367 18456 26637 2155 10359 18453 26635 2154 10353 18450 26634 2149 10345 18447 26631 2143 10337 18443 26630 2139 10330 18439 26627 2136 10323 18434 26624 2134 10317 18431 26622 2128 10310 18426 26618 2129 10306 18423 26616 2126 10299 18417 26612 2127 10296 18416 26612 2125 10292 18412 26607 2127 10290 18408 26606 2126 10286 18404 26601 2125 10283 18402 26601 2124 10280 18398 26597 2125 10277 18395 26596 2125 10275 18393 26593 2122 10271 18390 26591 2124 10272 18389 26589 2123 10269 18387 26586 2124 10269 18388 26587 2121 10268 18388 26582 2121 10266 18386 26583 2116 10259 18383 26580 2116 10259 18384 26584 2117 10264 18386 26583 2119 10264 18386 26583 2116 10260 18384 26581 2110 10255 18383 26580 2109 10252 18381 26578 2104 10247 18379 26576 2104 10244 18380 26577 2101 10243 18380 26575 2105 10245 18380 26578 2107 10247 18380 26577 2114 10256 18384 26582 2122 10269 18387 26583 2137 10287 18391 26585 2151 10305 18394 26585 2165 10322 18397 26587 2182 10340 18398 26585 2200 10356 18396 26583 2219 10373 18396 26581 2231 10384 18395 26576 2245 10396 18394 26575 2257 10407 18393 26572 2266 10417 18396 26576 2266 10421 18399 26577 2268 10425 18403 26581 2263 10425 18408 26582 2251 10419 18413 26587 2236 10408 18417 26590 2220 10395 18420 26594 2203 10380 18424 26596 2179 10359 18424 26597 2161 10341 18424 26600 2139 10319 18421 26599 2121 10301 18422 26604 2102 10282 18420 26603 2088 10266 18418 26605 2072 10249 18417 26604 2056 10231 18415 26606 2048 10222 18415 26604 2041 10222 18418 26607 2035 10222 18423 26612 2028 10219 18426 26614 2023 10217 18430 26619 2015 10213 18432 26620 2009 10212 18438 26625 2004 10211 18442 26626 2002 10213 18445 26630 2001 10215 18449 26632 2002 10217 18452 26636 2003 10222 18455 26637 2008 10227 18457 26640 2011 10232 18460 26643 2012 10236 18461 26644 2019 10243 18462 26646 2022 10246 18461 26646 2027 10250 18462 26647 2031 10253 18460 26645 2038 10255 18458 26646 2041 10255 18455 26644 2044 10254 18452 26644 2047 10254 18448 26642 2050 10251 18444 26640 2051 10247 18441 26637 2050 10242 18436 26634 2053 10238 18431 26630 2050 10231 18423 26626 2048 10225 18420 26623 2046 10218 18415 26616 2047 10213 18410 26615 2043 10206 18405 26609 2039 10199 18401 26608 2038 10191 18396 26603 2035 10185 18392 26601 2030 10178 18388 26597 2023 10168 18384 26596 2021 10158 18380 26590 2012 10148 18374 26584 2011 10149 18375 26585 2010 10146 18374 26583 2011 10143 18371 26584 2005 10137 18367 26581 2000 10131 18367 26582 1996 10124 18365 26579 1994 10120 18363 26578 1989 10116 18361 26576 1985 10111 18360 26577 1985 10108 18359 26576 1983 10107 18358 26577 1981 10107 18359 26578 1978 10103 18359 26577 1980 10103 18358 26578 1978 10101 18356 26577 1977 10101 18358 26580 1975 10098 18357 26578 1976 10098 18356 26580 1974 10098 18356 26579 1972 10097 18357 26581 1971 10095 18357 26580 1969 10096 18357 26580 1968 10096 18359 26581 1963 10094 18360 26581 1964 10096 18361 26581 1962 10096 18361 26580 1962 10100 18365 26583 1962 10101 18366 26581 1964 10104 18367 26584 1966 10107 18369 26584 1967 10110 18372 26587 1969 10113 18373 26588 1973 10119 18375 26590 1975 10123 18378 26592 1975 10125 18380 26593 1979 10131 18382 26595 1981 10134 18384 26596 1980 10134 18387 26598 1982 10142 18390 26596 1989 10154 18395 26602 1993 10161 18400 26605 1997 10168 18404 26610 1999 10173 18407 26610 2002 10178 18410 26611 2003 10182 18414 26613 2005 10186 18417 26616 2011 10193 18420 26617 2014 10198 18421 26618 2019 10206 18426 26622 2022 10212 18429 26621 2029 10221 18433 26626 2031 10227 18437 26627 2035 10234 18441 26632 2039 10241 18444 26633 2044 10248 18447 26635 2046 10254 18450 26637 2047 10258 18452 26639 2053 10264 18454 26639 2055 10267 18455 26640 2056 10272 18458 26643 2056 10274 18459 26643 2061 10278 18461 26645 2060 10279 18461 26645 2060 10280 18463 26648 2061 10281 18463 26647 2063 10283 18463 26648 2062 10284 18464 26648 2061 10284 18464 26649 2064 10286 18464 26651 2064 10286 18464 26652 2064 10288 18465 26654 2063 10288 18465 26655 2068 10292 18466 26656 2067 10292 18466 26656 2068 10294 18467 26659 2069 10293 18466 26657 2069 10292 18464 26657 2071 10296 18465 26659 2073 10301 18467 26661 2078 10303 18467 26660 2076 10301 18465 26658 2074 10299 18465 26657 2071 10295 18464 26655 2074 10297 18465 26656 2070 10294 18465 26655 2069 10294 18466 26658 2070 10293 18466 26656 2072 10295 18466 26658 2072 10296 18466 26658 2074 10298 18465 26660 2079 10301 18464 26659 2082 10304 18463 26658 2082 10303 18463 26657 2080 10300 18460 26656 2083 10299 18459 26654 2078 10294 18457 26652 2074 10291 18457 26651 2070 10285 18456 26647 2067 10280 18454 26648 2060 10272 18452 26645 2055 10265 18451 26646 2051 10259 18448 26643 2048 10253 18446 26642 2043 10247 18445 26641 2037 10241 18442 26640 2035 10238 18441 26638 2032 10233 18438 26637 2031 10230 18438 26637 2029 10227 18436 26635 2030 10225 18435 26636 2027 10221 18434 26634 2025 10219 18434 26635 2023 10217 18432 26634 2023 10215 18431 26633 2019 10208 18428 26631 2020 10210 18427 26632 2026 10218 18428 26631 2029 10222 18428 26631 2031 10223 18428 26633 2030 10221 18426 26630 2033 10222 18424 26630 2032 10220 18421 26628 2033 10221 18421 26629 2035 10221 18419 26626 2038 10223 18417 26625 2039 10224 18417 26624 2040 10225 18416 26624 2044 10227 18416 26624 2044 10228 18415 26623 2042 10227 18416 26623 2039 10224 18415 26622 2039 10221 18415 26622 2031 10214 18414 26619 2025 10207 18415 26620 2016 10196 18413 26616 2008 10186 18411 26616 1998 10174 18409 26613 1986 10160 18407 26613 1975 10147 18403 26611 1967 10135 18400 26610 1956 10122 18398 26608 1942 10106 18395 26606 1932 10094 18393 26606 1922 10085 18393 26605 1917 10084 18397 26610 1917 10090 18402 26611 1932 10110 18408 26617 1963 10145 18416 26619 2013 10202 18424 26625 2080 10273 18430 26623 2167 10360 18433 26618 2252 10441 18433 26606 2325 10505 18424 26591 2396 10563 18412 26572 2458 10606 18391 26550 2509 10628 18366 26525 2534 10624 18336 26497 2540 10601 18305 26475 2521 10556 18278 26456 5000 2471 10496 18265 26454 2396 10416 18261 26457 2310 10336 18267 26470 2220 10260 18280 26486 2134 10194 18299 26508 2064 10144 18319 26527 2009 10109 18338 26545 1961 10087 18358 26563 1925 10070 18374 26575 1904 10065 18389 26590 1890 10067 18403 26600 1885 10076 18419 26614 1884 10089 18432 26622 1891 10109 18448 26633 1900 10130 18460 26640 1911 10151 18472 26648 1923 10171 18480 26653 1936 10187 18484 26658 1947 10199 18487 26660 1952 10204 18485 26659 1960 10207 18482 26659 1964 10205 18476 26655 1969 10205 18473 26655 1972 10204 18468 26653 1977 10207 18467 26654 1980 10210 18468 26654 1980 10212 18472 26659 1979 10214 18475 26661 1977 10215 18478 26665 1975 10216 18483 26669 1971 10216 18486 26671 1973 10216 18486 26675 1973 10214 18484 26674 1983 10225 18488 26680 1994 10239 18490 26681 2007 10252 18491 26686 2017 10261 18490 26686 2025 10268 18490 26689 2030 10276 18490 26688 6000 2034 10280 18491 26689 2033 10280 18492 26689 2024 10276 18494 26690 2016 10271 18497 26691 2002 10259 18498 26691 1985 10245 18503 26695 1962 10227 18506 26695 1940 10207 18509 26699 1916 10186 18511 26699 1891 10164 18515 26705 1862 10138 18517 26706 1837 10116 18519 26711 1812 10093 18521 26712 1784 10067 18522 26716 1760 10045 18524 26719 1738 10024 18522 26722 1721 10007 18524 26726 1700 9988 18525 26728 1686 9974 18524 26733 1675 9963 18523 26734 1668 9956 18524 26740 1659 9949 18523 26741 1659 9949 18524 26745 1662 9952 18523 26745 1665 9956 18523 26747 1672 9964 18523 26747 1684 9976 18521 26746 1700 9992 18523 26745 1713 10005 18523 26742 1733 10024 18523 26742 1754 10042 18520 26737 1774 10056 18517 26735 1798 10078 18516 26730 1827 10105 18516 26728 1854 10128 18512 26723 1879 10147 18508 26721 1902 10165 18503 26713 1924 10181 18497 26707 1946 10198 18493 26701 1964 10211 18488 26694 1987 10226 18483 26689 2004 10238 18477 26681 2023 10251 18475 26678 2038 10263 18471 26671 2055 10275 18467 26666 2067 10284 18464 26660 2077 10291 18460 26656 2091 10300 18457 26651 2099 10305 18453 26646 2107 10311 18451 26642 2111 10313 18448 26637 2122 10319 18446 26634 2126 10321 18443 26628 2133 10327 18443 26628 2137 10329 18441 26622 2146 10335 18440 26621 2151 10339 18439 26617 2156 10343 18439 26618 2159 10346 18437 26615 2167 10352 18437 26616 2171 10357 18438 26615 2172 10360 18437 26614 2178 10365 18439 26615 2181 10369 18439 26615 2186 10375 18443 26617 2186 10378 18445 26616 2189 10382 18447 26618 2190 10386 18448 26617 2191 10389 18450 26624 2186 10386 18452 26623 2185 10387 18454 26623 2185 10392 18458 26625 2184 10395 18463 26630 2186 10399 18466 26632 2184 10399 18466 26633 2183 10399 18469 26635 2180 10397 18470 26633 2181 10397 18471 26636 2178 10395 18471 26635 2177 10394 18472 26639 2173 10390 18471 26638 2173 10388 18470 26640 2169 10385 18470 26640 2164 10379 18468 26642 2162 10374 18467 26641 2159 10369 18463 26641 2157 10364 18461 26641 2151 10356 18458 26637 2151 10352 18455 26637 2145 10345 18451 26633 2143 10339 18449 26635 2138 10332 18445 26632 2137 10327 18442 26632 2133 10320 18439 26629 2128 10314 18436 26628 2126 10310 18432 26625 2124 10305 18429 26623 2123 10302 18427 26621 2118 10296 18424 26617 2120 10294 18422 26616 2118 10289 18418 26612 2118 10287 18418 26612 2116 10284 18416 26609 2118 10282 18414 26609 2117 10280 18412 26606 2116 10278 18411 26606 2115 10277 18409 26604 2114 10275 18408 26602 2110 10269 18406 26601 2107 10268 18405 26599 2114 10275 18407 26603 2115 10275 18406 26602 2117 10276 18407 26605 2114 10275 18405 26600 2114 10274 18405 26600 2113 10272 18404 26598 2112 10270 18404 26600 2111 10268 18403 26598 2112 10266 18402 26598 2111 10264 18401 26597 2107 10262 18400 26597 2109 10264 18400 26597 2108 10263 18398 26596 2110 10267 18401 26598 2112 10271 18402 26595 2122 10282 18404 26599 2131 10293 18405 26599 2145 10309 18409 26603 2158 10324 18411 26602 2177 10343 18413 26603 2194 10359 18413 26600 2208 10371 18411 26599 2223 10384 18409 26595 2236 10395 18406 26592 2248 10406 18406 26591 2252 10410 18406 26589 2255 10414 18407 26591 2253 10415 18409 26591 2248 10413 18415 26597 2235 10405 18419 26599 2223 10397 18423 26603 2207 10383 18427 26605 2187 10367 18429 26608 2168 10349 18430 26609 2147 10330 18428 26612 2128 10312 18430 26613 2105 10289 18428 26612 2089 10272 18427 26615 2073 10259 18427 26617 2063 10251 18430 26623 2054 10243 18432 26625 2046 10236 18433 26630 2036 10228 18435 26633 2029 10223 18437 26637 2024 10221 18439 26639 2020 10218 18440 26641 2017 10217 18443 26644 2011 10216 18445 26645 2012 10218 18448 26649 2009 10218 18450 26650 2011 10223 18456 26655 2011 10226 18459 26655 2014 10230 18461 26658 2016 10234 18463 26659 2019 10238 18465 26662 2022 10244 18466 26663 2026 10249 18466 26664 2030 10254 18468 26665 2032 10256 18468 26665 2039 10263 18468 26665 2042 10265 18467 26664 2047 10269 18468 26665 2051 10271 18465 26662 2058 10273 18462 26662 2059 10272 18460 26658 2060 10271 18457 26657 2062 10270 18452 26653 2064 10267 18447 26651 2063 10263 18444 26647 2061 10257 18438 26644 2064 10254 18433 26641 2060 10246 18427 26637 2058 10240 18423 26634 2057 10233 18417 26625 2055 10223 18411 26623 2046 10207 18403 26615 2042 10204 18400 26614 2042 10199 18398 26611 2039 10194 18394 26610 2033 10184 18390 26608 2025 10173 18386 26607 2022 10164 18383 26604 2015 10156 18378 26602 2010 10150 18377 26601 2005 10142 18374 26597 2004 10138 18370 26597 2000 10133 18367 26594 1999 10131 18367 26595 1998 10128 18365 26593 1999 10128 18364 26592 1997 10127 18363 26592 1995 10125 18363 26593 1997 10124 18362 26592 1997 10124 18361 26592 1997 10126 18363 26592 1997 10124 18363 26591 2001 10126 18364 26592 2000 10126 18362 26591 2001 10128 18364 26592 2002 10127 18362 26590 2005 10129 18361 26589 2004 10129 18360 26588 2002 10128 18360 26587 2004 10128 18358 26585 2005 10128 18356 26584 2005 10129 18357 26583 2005 10127 18356 26581 2010 10129 18355 26579 2009 10130 18353 26576 2009 10133 18355 26578 2012 10134 18355 26575 2015 10137 18355 26576 2015 10139 18355 26575 2013 10134 18355 26575 2016 10139 18357 26574 2020 10149 18361 26576 2023 10156 18365 26579 2024 10159 18367 26580 2029 10164 18369 26582 2027 10166 18370 26582 2027 10170 18374 26586 2030 10173 18376 26585 2033 10177 18378 26588 2034 10181 18379 26587 2037 10186 18383 26591 2043 10192 18385 26592 2046 10199 18389 26594 2048 10204 18393 26596 2049 10209 18396 26599 2056 10217 18400 26602 2056 10222 18403 26604 2058 10229 18408 26607 2061 10233 18411 26607 2066 10239 18414 26611 2066 10242 18416 26612 2066 10247 18420 26616 2069 10251 18421 26617 2071 10254 18423 26619 2071 10257 18426 26620 2070 10259 18428 26621 2075 10265 18430 26623 2074 10266 18431 26625 2074 10270 18435 26628 2074 10272 18438 26628 2079 10278 18440 26631 2078 10280 18442 26631 2078 10283 18445 26634 2080 10285 18446 26635 2082 10289 18448 26638 2081 10290 18450 26638 2078 10289 18451 26641 2080 10289 18452 26640 2074 10284 18451 26638 2075 10288 18453 26640 2078 10293 18455 26639 2084 10298 18456 26644 2083 10297 18456 26644 2083 10298 18457 26648 2084 10297 18457 26647 2084 10297 18457 26647 2083 10295 18457 26646 2080 10292 18456 26647 2083 10291 18455 26645 2080 10288 18453 26644 2080 10287 18453 26644 2079 10285 18452 26643 2085 10288 18451 26642 2084 10288 18449 26639 2086 10291 18449 26639 2088 10291 18448 26636 2090 10292 18446 26636 2088 10289 18445 26633 2085 10286 18445 26634 2085 10283 18443 26631 2081 10278 18441 26631 2077 10273 18440 26629 2072 10267 18437 26627 2072 10264 18435 26626 2066 10256 18431 26623 2061 10250 18429 26623 2059 10244 18426 26619 2057 10240 18423 26620 2053 10234 18422 26617 2049 10230 18421 26619 2051 10228 18420 26618 2051 10228 18419 26618 2049 10227 18420 26618 2047 10225 18420 26618 2049 10226 18419 26618 2048 10224 18417 26616 2045 10220 18417 26617 2046 10222 18417 26612 2053 10231 18418 26615 2057 10235 18418 26614 2059 10238 18418 26617 2062 10239 18417 26615 2063 10240 18417 26615 2063 10242 18418 26616 2063 10242 18417 26617 2068 10245 18416 26615 2068 10245 18413 26612 2071 10246 18413 26612 2071 10246 18412 26609 2075 10247 18412 26610 2073 10245 18410 26606 2073 10244 18411 26607 2072 10243 18410 26604 2072 10241 18409 26603 2068 10236 18408 26600 2062 10228 18406 26600 2059 10221 18402 26596 2051 10211 18398 26594 2042 10200 18396 26592 2032 10186 18392 26588 2026 10174 18388 26586 2015 10161 18383 26582 2006 10149 18382 26582 1998 10136 18377 26578 1991 10125 18373 26576 1981 10114 18370 26572 1970 10101 18368 26572 1960 10089 18365 26570 1953 10085 18365 26571 1951 10088 18370 26573 1956 10099 18375 26576 1980 10127 18382 26580 2020 10174 18389 26581 2079 10238 18400 26583 2095 10296 18444 26594 2034 10327 18543 26633 2073 10400 18571 26647 2277 10525 18486 26590 2463 10616 18380 26523 2581 10662 18311 26479 2636 10669 18270 26448 2641 10642 18245 26430 2608 10591 18228 26418 2550 10522 18218 26416 5000 2467 10444 18222 26424 2368 10356 18234 26438 2271 10278 18253 26461 2177 10208 18273 26482 2096 10151 18300 26509 2031 10109 18323 26530 1980 10081 18344 26548 1936 10060 18362 26563 1908 10054 18379 26578 1891 10056 18397 26591 1884 10063 18412 26603 1881 10073 18427 26616 1880 10087 18441 26624 1890 10109 18456 26637 1901 10131 18467 26644 1918 10157 18479 26654 1933 10180 18487 26658 1950 10200 18491 26663 1964 10214 18492 26664 1975 10223 18491 26667 1982 10227 18487 26666 1989 10228 18482 26666 1992 10227 18478 26665 1992 10224 18473 26663 1995 10223 18470 26661 1993 10217 18464 26655 1990 10212 18463 26654 1983 10203 18460 26647 1977 10195 18457 26646 1970 10186 18455 26643 1964 10177 18453 26644 1960 10171 18451 26643 1961 10172 18450 26645 1963 10174 18451 26647 1967 10179 18452 26650 1976 10190 18454 26653 1984 10199 18455 26655 1994 10211 18460 26658 2000 10219 18462 26657 6000 2006 10227 18464 26660 2007 10231 18467 26659 2005 10234 18472 26664 1999 10233 18477 26665 1993 10231 18483 26669 1981 10225 18489 26672 1962 10210 18493 26677 1947 10202 18500 26681 1932 10196 18505 26686 1915 10184 18511 26693 1891 10166 18515 26695 1868 10147 18518 26702 1843 10126 18519 26703 1818 10105 18524 26711 1790 10081 18527 26715 1768 10063 18531 26719 1748 10046 18533 26721 1728 10030 18537 26728 1711 10017 18540 26730 1701 10010 18541 26734 1695 10006 18544 26737 1687 10002 18545 26739 1689 10005 18548 26744 1695 10012 18547 26744 1706 10022 18550 26749 1715 10033 18551 26750 1732 10049 18552 26752 1749 10066 18552 26750 1768 10083 18554 26753 1786 10102 18554 26752 1807 10122 18554 26752 1826 10141 18555 26751 1841 10158 18556 26751 1861 10179 18560 26752 1880 10197 18558 26749 1903 10218 18560 26751 1923 10235 18557 26747 1945 10252 18553 26744 1964 10267 18548 26738 1981 10278 18545 26737 1996 10289 18540 26732 2011 10298 18534 26728 2024 10304 18529 26722 2032 10307 18524 26716 2043 10312 18518 26711 2047 10308 18510 26702 2056 10314 18510 26701 2064 10321 18508 26694 2072 10324 18503 26692 2074 10322 18498 26687 2076 10322 18496 26685 2078 10321 18494 26679 2080 10321 18491 26675 2082 10320 18489 26673 2083 10319 18485 26669 2092 10321 18482 26665 2095 10323 18478 26662 2103 10329 18477 26660 2111 10334 18475 26654 2124 10343 18473 26654 2132 10350 18470 26650 2142 10358 18469 26650 2150 10364 18466 26646 2162 10374 18463 26644 2170 10381 18461 26640 2176 10386 18458 26639 2184 10392 18456 26636 2191 10398 18453 26634 2199 10405 18453 26633 2202 10408 18452 26630 2210 10413 18451 26630 2214 10417 18449 26627 2219 10422 18450 26629 2220 10421 18448 26627 2225 10423 18448 26626 2227 10424 18447 26622 2227 10423 18446 26620 2227 10421 18444 26617 2229 10420 18442 26617 2229 10420 18442 26616 2224 10415 18441 26614 2224 10413 18442 26614 2221 10409 18440 26612 2217 10402 18439 26612 2210 10395 18437 26608 2212 10396 18436 26609 2211 10392 18435 26608 2206 10385 18432 26609 2199 10377 18429 26605 2194 10370 18425 26603 2188 10361 18423 26602 2178 10350 18419 26599 2174 10343 18416 26599 2168 10334 18411 26594 2165 10328 18409 26595 2159 10320 18405 26590 2157 10315 18401 26589 2153 10308 18397 26585 2150 10303 18394 26586 2145 10297 18391 26582 2143 10293 18389 26581 2139 10288 18387 26579 2134 10281 18384 26576 2134 10278 18383 26575 2130 10272 18379 26572 2129 10270 18380 26573 2125 10266 18379 26569 2125 10263 18377 26570 2121 10259 18375 26566 2120 10256 18376 26568 2117 10254 18374 26566 2117 10251 18374 26567 2114 10249 18374 26565 2109 10246 18373 26565 2109 10245 18373 26564 2106 10242 18371 26563 2106 10241 18373 26563 2104 10240 18372 26561 2107 10241 18372 26563 2107 10242 18371 26561 2112 10245 18373 26566 2114 10251 18373 26562 2123 10259 18374 26562 2138 10278 18378 26565 2154 10299 18382 26570 2174 10321 18384 26569 2195 10340 18384 26568 2215 10359 18385 26568 2229 10373 18384 26565 2247 10388 18383 26566 2262 10401 18381 26564 2276 10413 18381 26566 2281 10417 18380 26563 2286 10422 18379 26563 2286 10422 18380 26562 2278 10417 18383 26566 2265 10408 18387 26567 2252 10399 18391 26571 2234 10386 18397 26574 2212 10369 18401 26576 2195 10355 18405 26581 2174 10337 18406 26583 2157 10322 18410 26588 2138 10304 18410 26589 2125 10290 18409 26591 2111 10277 18408 26590 2100 10266 18408 26593 2092 10259 18407 26593 2087 10253 18407 26595 2082 10250 18410 26596 2075 10247 18412 26598 2074 10248 18416 26601 2068 10246 18419 26602 2063 10246 18424 26607 2060 10247 18428 26607 2059 10249 18432 26612 2056 10250 18437 26613 2054 10252 18441 26618 2057 10257 18444 26620 2058 10261 18448 26622 2056 10260 18449 26624 2057 10265 18452 26626 2068 10279 18456 26630 2070 10283 18457 26632 2073 10289 18460 26637 2076 10290 18460 26636 2079 10292 18459 26639 2077 10290 18457 